energy,cross_section
1e-05,0.008541949
1.103037e-05,0.008133209
1.216691e-05,0.007744028
1.342055e-05,0.007373469
1.480336e-05,0.007020642
1.632865e-05,0.006684698
1.801111e-05,0.00636483
1.986691e-05,0.006060267
2.191394e-05,0.005770278
2.417189e-05,0.005494165
2.666248e-05,0.005231265
2.940971e-05,0.004980944
3.243999e-05,0.004742602
3.578251e-05,0.004515664
3.946943e-05,0.004299585
4.353624e-05,0.004093847
4.802208e-05,0.003897953
5.297013e-05,0.003711432
5.842801e-05,0.003533837
6.444825e-05,0.00336474
7.108881e-05,0.003203734
7.841358e-05,0.003050433
8.649308e-05,0.002904467
9.540506e-05,0.002765486
0.0001052353,0.002633155
0.0001160784,0.002507156
0.0001280388,0.002387187
0.0001412315,0.002272958
0.0001557836,0.002164195
0.0001718351,0.002060636
0.0001895404,0.001962033
0.0002090701,0.001868148
0.000230612,0.001778756
0.0002543736,0.001693641
0.0002805835,0.001612599
0.0003094939,0.001535435
0.0003413832,0.001461963
0.0003765583,0.001392007
0.0004153577,0.001325399
0.0004581549,0.001261977
0.0005053618,0.001201591
0.0005574328,0.001144094
0.0006148689,0.001089348
0.0006782232,0.001037222
0.0007481052,0.0009875905
0.0008251877,0.0009403337
0.0009102125,0.0008953382
0.001003998,0.0008524958
0.0011074469,0.0008117035
0.0012215549,0.0007728631
0.0013474202,0.0007358812
0.0014862542,0.000700669
0.0016393933,0.0006671418
0.0018083114,0.0006352188
0.0019946343,0.0006048234
0.0022001553,0.0005758825
0.0024268526,0.0005483265
0.0026769081,0.000522089
0.0029527286,0.000497107
0.0032569687,0.0004733205
0.0035925568,0.0004506722
0.0039627229,0.0004291077
0.0043710298,0.0004085751
0.0048214074,0.000389025
0.0053181905,0.0003704104
0.0058661607,0.0003526866
0.006470592,0.000335811
0.007137302,0.0003197429
0.0078727078,0.0003044437
0.0086838876,0.0002898767
0.0095786489,0.0002760068
0.0105656037,0.0002628007
0.0116542513,0.0002502266
0.0128550698,0.0002382543
0.014179617,0.000226855
0.0156406415,0.0002160013
0.0172522055,0.0002056672
0.0190298201,0.0001958278
0.0209905947,0.0001864594
0.0231534016,0.0001775396
0.0252418805,0.0001700388
0.0253,0.0001698435
0.0279068348,0.0001617194
0.03078227,0.0001539844
0.0339539812,0.0001466199
0.0374524958,0.0001396083
0.0413114868,0.000132933
0.0455680964,0.0001265782
0.050263294,0.000120529
0.0554422705,0.0001147708
0.061154873,0.0001092891
0.0674560846,0.0001040698
0.0744065538,9.909917e-05
0.0820731781,9.436508e-05
0.0905297481,8.985686e-05
0.0998576572,8.55648e-05
0.1101466856,8.147989e-05
0.1214958641,7.759225e-05
0.1340144274,7.389195e-05
0.1478228652,7.036835e-05
0.1630540823,6.701262e-05
0.1798546777,6.381737e-05
0.1983863551,6.077404e-05
0.21882748,5.78744e-05
0.2413747961,5.511381e-05
0.2662453188,5.248745e-05
0.2936784244,4.998502e-05
0.3239381535,4.759996e-05
0.3573157528,4.533102e-05
0.3941324781,4.317031e-05
0.4347426864,4.110989e-05
0.4795372468,3.914724e-05
0.5289473021,3.728334e-05
0.5875641227,3.538262e-05
0.6481049377,3.369208e-05
0.7148836937,3.208709e-05
0.7885431289,3.05559e-05
0.8697922077,2.909902e-05
0.9594129437,2.771632e-05
1.058267932,2.641691e-05
1.167308631,2.519243e-05
1.287584551,2.402885e-05
1.430201762,2.284708e-05
1.57756539,2.178687e-05
1.740112916,2.078243e-05
1.93294855,1.975639e-05
2.147048459,1.878005e-05
2.384979828,1.784977e-05
2.630720874,1.702603e-05
2.942721254,1.613252e-05
3.245930276,1.538406e-05
3.605460478,1.462691e-05
4.00500998,1.390388e-05
4.448618416,1.321645e-05
4.906990489,1.260483e-05
5.374942034,1.206505e-05
6.012403793,1.142981e-05
6.631903541,1.090032e-05
7.418439447,1.032842e-05
8.240130867,9.81665e-06
9.21740063,9.301258e-06
10.09641131,8.906757e-06
11.2147239,8.506019e-06
12.45751591,8.122836e-06
13.74110034,7.785268e-06
15.15694141,7.456705e-06
16.83577541,7.120765e-06
18.83247843,6.782023e-06
20.19895728,6.581317e-06
22.5945297,6.314942e-06
25.27421416,6.058736e-06
28.87281403,5.769311e-06
32.52332661,5.520596e-06
37.1540715,5.257676e-06
41.26938198,5.058911e-06
45.84276757,4.866252e-06
50.21206552,4.706945e-06
56.56336582,4.570388e-06
65.52539996,4.404224e-06
75.37939102,4.251871e-06
89.80840007,4.069969e-06
100.4595704,3.958858e-06
126.581873,3.837283e-06
150.8119841,3.748236e-06
297.5181576,3.741514e-06
354.9218916,3.829053e-06
408.29657,3.907642e-06
507.3328103,4.038159e-06
617.2670169,4.22662e-06
740.5747466,4.424315e-06
933.144931,4.737269e-06
1217.729129,5.185712e-06
1420.620029,5.49586e-06
1740.64761,5.926992e-06
2132.664162,6.418129e-06
2463.252246,6.838823e-06
2873.664916,7.316665e-06
3480.280764,7.957306e-06
4146.267387,8.58887e-06
4796.632772,9.15388e-06
5142.077207,9.428614e-06
10070.54105,1.301178e-05
15105.81155,1.588593e-05
35246.89355,2.450864e-05
55775.951,3.132312e-05
76594.6366,3.738135e-05
99077.83054,4.341208e-05
132294.1939,5.188308e-05
162018.8459,5.94749e-05
201410.8205,6.977635e-05
250000.0,8.44609e-05
280000.0,9.591113e-05
300000.0,0.0001054416
320000.0,0.0001175427
340000.0,0.0001339351
360000.0,0.0001580968
370000.0,0.0001751974
380000.0,0.0001977011
390000.0,0.0002281761
400000.0,0.0002701148
405000.0,0.0002962595
415000.0,0.0003551554
420000.0,0.0003795316
425000.0,0.0003873013
429965.427,0.0003651205
435000.0,0.0003076887
440000.0,0.0002298976
445000.0,0.0001546407
450000.0,9.624688e-05
455000.0,5.667512e-05
459687.5009,3.347288e-05
460000.0,3.196999e-05
461622.4438,2.82591e-05
469972.5773,9.380254e-06
470025.9028,9.304488e-06
471243.2864,8.618909e-06
479973.6795,3.77733e-06
480026.4539,3.765005e-06
480052.9067,3.764595e-06
490000.0,4.63279e-06
500000.0,7.770313e-06
550000.0,2.495284e-05
600000.0,3.477168e-05
650000.0,3.909863e-05
700000.0,3.964896e-05
750000.0,3.742931e-05
817009.457,3.213605e-05
850000.0,2.958963e-05
900000.0,3.062176e-05
920000.0,3.511213e-05
940000.0,4.386563e-05
960000.0,5.777354e-05
980000.0,7.487873e-05
1000000.0,8.187999e-05
1020000.0,7.11353e-05
1040000.0,5.625476e-05
1060000.0,4.551467e-05
1080000.0,3.880298e-05
1100000.0,3.464247e-05
1150000.0,2.94613e-05
1220000.0,2.597977e-05
1230000.0,2.538963e-05
1240000.0,2.464945e-05
1250000.0,2.368902e-05
1260000.0,2.233831e-05
1270000.0,2.031713e-05
1280000.0,1.716534e-05
1290000.0,1.218577e-05
1299687.51,5.762528e-06
1300000.0,5.563569e-06
1301250.009,5.133396e-06
1309882.827,2.221142e-06
1309960.947,2.203746e-06
1309980.479,2.202901e-06
1310039.072,2.212662e-06
1310117.202,2.247887e-06
1320000.005,7.842467e-06
1330000.0,1.594275e-05
1340000.0,2.126377e-05
1350000.0,2.41966e-05
1360000.0,2.582824e-05
1370000.0,2.678905e-05
1380000.0,2.738942e-05
1390000.0,2.776971e-05
1400000.0,2.803973e-05
1420000.0,2.837984e-05
1450157.909,2.866907e-05
1540000.0,2.928012e-05
1565000.005,2.958e-05
1580000.0,2.988028e-05
1590000.0,3.020057e-05
1600000.0,3.072117e-05
1610000.0,3.165289e-05
1620000.0,3.35998e-05
1627500.008,3.761001e-05
1630000.0,3.90105e-05
1631875.013,4.390005e-05
1639921.885,6.517628e-05
1640000.0,6.553185e-05
1640125.009,6.6476e-05
1641937.51,8.274649e-05
1642000.0,8.348345e-05
1642125.009,8.542314e-05
1643906.265,0.0001164457
1644000.0,0.0001186485
1644093.765,0.00012181
1645875.009,0.0001927833
1645937.51,0.0001957579
1646000.0,0.0001998129
1646062.51,0.000205373
1646187.514,0.0002190543
1647875.009,0.000411638
1647953.14,0.0004223696
1648000.0,0.0004308976
1648046.89,0.0004415497
1648125.009,0.0004627828
1649875.009,0.000978523
1649953.14,0.0009972472
1650000.0,0.001003515
1650031.26,0.001004883
1650093.765,0.001001874
1650375.014,0.0009654126
1651937.515,0.000754175
1652000.005,0.0007439296
1652125.014,0.0007186809
1653875.01,0.000332061
1653953.14,0.0003162888
1654000.0,0.0003085439
1654046.89,0.0003025296
1654125.009,0.0002953679
1655906.265,0.0001662527
1655968.76,0.0001622866
1656031.26,0.0001591506
1656125.009,0.000155879
1657906.265,0.0001061846
1658000.0,0.0001039485
1658093.765,0.0001023402
1659937.51,7.818649e-05
1660039.072,7.729267e-05
1660234.39,7.650982e-05
1669921.885,4.428024e-05
1670046.885,4.406643e-05
1670093.76,4.405844e-05
1679937.52,4.884085e-05
1680078.149,4.920272e-05
1681906.26,5.720283e-05
1682000.0,5.778279e-05
1682125.009,5.897069e-05
1683875.009,7.820561e-05
1683937.51,7.908097e-05
1684000.0,8.036725e-05
1684062.51,8.222215e-05
1684187.514,8.690916e-05
1685875.009,0.0001533326
1685937.51,0.0001565073
1685984.385,0.00015986
1686031.26,0.0001644292
1686062.509,0.0001681313
1686125.009,0.0001765801
1686843.766,0.0002821163
1686890.641,0.0002899753
1686921.892,0.0002963487
1686953.14,0.0003044118
1686976.577,0.0003120054
1687000.0,0.0003211712
1687023.452,0.0003320095
1687046.89,0.0003444196
1687078.142,0.0003630283
1687125.009,0.0003938781
1687312.514,0.0005256468
1687781.265,0.0008573
1687828.145,0.0008931122
1687859.392,0.0009221931
1687875.009,0.0009404008
1687890.641,0.0009626963
1687906.264,0.0009906791
1687917.992,0.001016591
1687929.706,0.001047665
1687941.424,0.001084881
1687953.14,0.001129132
1687964.862,0.001181316
1687976.577,0.001242102
1687988.296,0.001312111
1688000.0,0.001391573
1688012.51,0.001487186
1688025.01,0.001593583
1688037.515,0.001710423
1688050.009,0.001836835
1688062.517,0.001972118
1688081.27,0.002189003
1688100.009,0.002419162
1688131.273,0.002823505
1688187.516,0.003581515
1688600.008,0.00923805
1688637.519,0.009784192
1688662.52,0.010190149
1688681.272,0.010541982
1688700.009,0.010962637
1688712.516,0.011299962
1688725.014,0.011698636
1688737.517,0.012176549
1688746.894,0.012599315
1688756.267,0.013088281
1688765.646,0.01365562
1688775.01,0.014313213
1688784.392,0.015078642
1688793.76,0.015966536
1688800.0,0.01663626
1688806.259,0.017378579
1688812.509,0.018197466
1688818.763,0.019102818
1688825.008,0.020101159
1688831.264,0.021205831
1688837.511,0.022423522
1688843.763,0.023768613
1688850.005,0.025250314
1688856.263,0.026888761
1688862.511,0.028692049
1688868.764,0.030680095
1688875.008,0.032864627
1688881.263,0.035271266
1688887.509,0.037909786
1688893.759,0.04080505
1688900.0,0.043968773
1688906.259,0.047435032
1688912.509,0.051206881
1688918.763,0.055310357
1688925.008,0.059750959
1688931.264,0.064558493
1688937.511,0.069726621
1688943.763,0.075274535
1688950.005,0.081191457
1688956.263,0.087500903
1688965.643,0.097646413
1688975.008,0.108551334
1688984.391,0.120167887
1688996.885,0.136485128
1689025.008,0.17460958
1689037.511,0.190878362
1689046.889,0.20224018
1689056.263,0.212568075
1689065.643,0.221607128
1689075.008,0.229101493
1689084.391,0.23487674
1689093.759,0.23875862
1689103.135,0.240661305
1689106.26,0.240846616
1689115.642,0.240056193
1689125.009,0.237292549
1689134.395,0.232645149
1689143.765,0.226281181
1689153.142,0.218383472
1689162.514,0.209185769
1689175.011,0.195324205
1689187.513,0.180187424
1689221.894,0.136650816
1689234.396,0.121517856
1689243.766,0.110757923
1689253.141,0.100592095
1689262.513,0.091091569
1689271.892,0.08228124
1689278.141,0.0768066
1689284.392,0.071647363
1689290.64,0.06680327
1689296.885,0.062268155
1689303.135,0.058029172
1689309.389,0.054077387
1689315.641,0.050406476
1689321.89,0.047004223
1689328.141,0.043855928
1689334.393,0.040948716
1689340.642,0.038271009
1689346.889,0.035809242
1689353.139,0.033548033
1689359.392,0.031474686
1689365.643,0.029578415
1689371.891,0.027846731
1689378.14,0.026266712
1689384.391,0.024827104
1689390.639,0.023517904
1689396.885,0.022328679
1689404.697,0.020994406
1689411.736,0.019924552
1689418.76,0.018969352
1689425.802,0.018113035
1689432.829,0.017349363
1689442.206,0.016455186
1689451.583,0.015684618
1689460.958,0.015019442
1689470.33,0.014443191
1689479.706,0.013941091
1689493.766,0.013300314
1689507.834,0.012762793
1689521.894,0.012300788
1689540.641,0.011764672
1689568.766,0.011060752
1689606.268,0.010204712
1689831.266,0.0052868
1689878.144,0.004287783
1689906.266,0.00371539
1689925.009,0.003354637
1689939.083,0.003098782
1689953.142,0.002858895
1689967.204,0.002636995
1689981.26,0.002435215
1689990.635,0.002312453
1690003.916,0.002155276
1690015.635,0.002032961
1690027.361,0.001925603
1690039.08,0.001832656
1690050.802,0.001753026
1690062.509,0.001685586
1690074.241,0.001628723
1690085.958,0.001581166
1690101.583,0.001529569
1690117.205,0.001488513
1690132.831,0.001455138
1690156.266,0.001414559
1690187.513,0.001370038
1690312.514,0.001215259
1690843.766,0.0005687291
1690890.641,0.0005134403
1690921.892,0.0004786494
1690945.329,0.0004545016
1690968.76,0.0004326589
1690992.197,0.0004135705
1691015.635,0.0003974845
1691039.08,0.0003843471
1691062.509,0.0003738433
1691085.958,0.0003654454
1691125.009,0.0003546136
1691187.513,0.0003409994
1691875.009,0.0002048801
1691937.509,0.0001935066
1691984.385,0.000186332
1692015.635,0.0001824838
1692062.51,0.0001781135
1692109.392,0.0001749761
1692250.009,0.0001678678
1693875.009,8.957287e-05
1693937.51,8.679731e-05
1694000.0,8.45342e-05
1694046.89,8.330485e-05
1694125.009,8.193206e-05
1695937.51,5.852896e-05
1696000.0,5.788358e-05
1696125.009,5.700829e-05
1697750.009,4.83937e-05
1698000.0,4.714642e-05
1699000.005,4.437998e-05
1700000.0,4.174487e-05
1703750.011,3.861124e-05
1710000.0,3.349852e-05
1720000.0,3.156384e-05
1740000.0,3.032111e-05
1760000.0,2.983031e-05
1800000.0,2.92705e-05
1819937.514,2.932084e-05
1822000.0,2.95538e-05
1824000.0,3.003821e-05
1826000.0,3.106933e-05
1828000.0,3.338294e-05
1829500.008,3.717253e-05
1830000.0,3.849175e-05
1831875.009,4.5804e-05
1832000.0,4.619851e-05
1832250.009,4.644872e-05
1833937.51,4.7424e-05
1834000.0,4.739134e-05
1834250.009,4.682993e-05
1836000.005,4.222569e-05
1838000.0,3.798625e-05
1840000.0,3.544557e-05
1842000.0,3.39284e-05
1844000.0,3.296459e-05
1846000.0,3.230306e-05
1848000.0,3.184184e-05
1851000.005,3.1365e-05
1852000.0,3.123153e-05
1858000.0,3.072115e-05
1868000.005,3.028e-05
1885000.0,2.992025e-05
1900000.0,2.974015e-05
1977510.99,2.922594e-05
2000000.0,2.910053e-05
2100000.0,3.020854e-05
2262513.971,3.068103e-05
2359386.873,3.107738493104832e-05
2360000.0,3.1079893536703685e-05
2365000.0,3.1100351008445797e-05
2370000.0,3.112080848018791e-05
2380000.0,3.116172342367214e-05
2390000.0,3.120263836715637e-05
2400000.0,3.124355331064059e-05
2410000.0,3.128446825412482e-05
2420000.0,3.132538319760905e-05
2430000.0,3.136629814109328e-05
2433859.68,3.138209e-05
2440000.0,3.141453709735481e-05
2450000.0,3.1467379778770134e-05
2460000.0,3.152022246018546e-05
2470000.0,3.157306514160078e-05
2480000.0,3.1625907823016145e-05
2490000.0,3.167875050443173e-05
2500000.0,3.173159318584881e-05
2510000.0,3.1784435867273636e-05
2520000.0,3.183727854873276e-05
2530000.0,3.189012123032362e-05
2540000.0,3.194296391236275e-05
2550000.0,3.199580659577601e-05
2560000.0,3.204864928303605e-05
2570000.0,3.210149198024363e-05
2580000.0,3.2154334701441954e-05
2590000.0,3.220717747704068e-05
2600000.0,3.2260020370273e-05
2620000.0,3.2396425823943245e-05
2640000.0,3.2532835106576495e-05
2660000.0,3.2669256424939735e-05
2680000.0,3.2805711563052975e-05
2685625.016,3.2844113804376844e-05
2698750.009,3.293371910370348e-05
2700000.0,3.294225326356622e-05
2701250.009,3.295079957719264e-05
2718750.009,3.3070452404616726e-05
2720000.0,3.307899981547946e-05
2721875.014,3.309186150482919e-05
2738750.009,3.320762338952997e-05
2740000.0,3.321620005339271e-05
2742500.009,3.3233466861263704e-05
2758750.009,3.334571220244321e-05
2760000.0,3.335434993830595e-05
2766250.014,3.33981092240117e-05
2780000.0,3.34943939252192e-05
2798750.009,3.36290707552697e-05
2800000.0,3.363806218913244e-05
2819751.485,3.37865531461736e-05
2820000.0,3.3788766843937785e-05
2840000.0,3.397889694016692e-05
2860000.0,3.4189894406396054e-05
2880000.0,3.4436340062625195e-05
2883000.0,3.447762669105956e-05
2886000.0,3.4520310519493936e-05
2889050.0,3.4564976345068876e-05
2889300.0,3.457028613077174e-05
2891000.005,3.459562187460093e-05
2892000.0,3.461083767636267e-05
2894000.0,3.464234666198559e-05
2897000.005,3.469133923146967e-05
2900000.0,3.4742174818854326e-05
2905000.0,3.4831918732911606e-05
2910000.0,3.4928399646968895e-05
2915000.0,3.5032491661026175e-05
2920000.0,3.5145161575083455e-05
2925000.0,3.5267492689140746e-05
2930000.0,3.5400697703198025e-05
2935000.0,3.5546132717255305e-05
2940000.0,3.5705315231312595e-05
2945000.0,3.587994214536988e-05
2950000.0,3.607191285942716e-05
2955000.0,3.628335457348445e-05
2960000.0,3.6516653287541726e-05
2965000.0,3.6774498001599015e-05
2970000.0,3.70599267156563e-05
2975000.0,3.7376420429713575e-05
2980000.0,3.7728038143770865e-05
2985000.0,3.811971485782815e-05
2990000.0,3.8558024571885426e-05
2995000.0,3.905371528594272e-05
3000000.0,3.9633764e-05
3001500.005,3.9842030277968455e-05
3002500.005,3.9996830095298035e-05
3003000.0,4.0079563451988734e-05
3004000.0,4.027390626931832e-05
3004750.008,4.046536246547404e-05
3005000.0,4.05381710866479e-05
3005625.011,4.082267496182187e-05
3005937.509,4.0978202321447735e-05
3006062.509,4.107379967361393e-05
3006312.511,4.1330608398735965e-05
3006437.509,4.147310173011252e-05
3006550.005,4.163250910548283e-05
3006700.0,4.190594227610818e-05
3006775.008,4.2039482970566435e-05
3006825.008,4.2097137711432915e-05
3006850.005,4.21057375506817e-05
3006887.509,4.207797139791084e-05
3006912.509,4.202241626834408e-05
3006937.513,4.192843718035658e-05
3006962.514,4.178851006118464e-05
3006981.267,4.164932999519402e-05
3007000.005,4.1478526773281135e-05
3007018.767,4.127446680084388e-05
3007037.514,4.103745567248436e-05
3007056.265,4.076856858570411e-05
3007075.009,4.047079342616013e-05
3007100.0,4.0036496203040016e-05
3007131.264,3.945442418660901e-05
3007168.764,3.874799999225887e-05
3007187.509,3.841163384310971e-05
3007200.0,3.8199316684772974e-05
3007212.509,3.799875271354295e-05
3007225.008,3.7812303638364746e-05
3007237.511,3.764134560476582e-05
3007250.005,3.748734747761354e-05
3007259.392,3.738327205376381e-05
3007268.764,3.7289611473991824e-05
3007278.14,3.720629993579911e-05
3007287.509,3.713346132484267e-05
3007296.885,3.707090378664994e-05
3007306.26,3.701851823806241e-05
3007315.642,3.69760037622386e-05
3007325.009,3.694309713049253e-05
3007334.395,3.691926269624798e-05
3007343.765,3.6904108095686364e-05
3007353.142,3.689704956788846e-05
3007356.266,3.68964000412978e-05
3007368.768,3.6901720997304054e-05
3007381.267,3.6918605922125857e-05
3007393.764,3.694554782615802e-05
3007406.264,3.698106176137464e-05
3007425.011,3.704720163301512e-05
3007443.766,3.712475558781413e-05
3007475.009,3.726842835309196e-05
3007531.259,3.7535043061566756e-05
3007562.509,3.7674364899608304e-05
3007609.39,3.786628721903953e-05
3007656.264,3.804162146570704e-05
3007750.005,3.8368381886278326e-05
3007843.764,3.868197549395633e-05
3007906.263,3.887616815964461e-05
3007953.139,3.900411842710175e-05
3008000.0,3.910984753863664e-05
3008046.89,3.919085595162122e-05
3008093.765,3.9249648208683544e-05
3008125.009,3.9279548984356185e-05
3008250.009,3.936504633652239e-05
3009875.009,4.030963291468295e-05
3010000.0,4.0368633173295794e-05
3010156.26,4.0411770467451716e-05
3020000.0,4.220348234659159e-05
3030000.0,4.4129977519887386e-05
3040000.0,4.647101269318319e-05
3050000.0,4.934150086647898e-05
3060000.0,5.2865099039774784e-05
3070000.0,5.7187397213070575e-05
3080000.0,6.248131538636637e-05
3090000.0,6.895143355966217e-05
3100000.0,7.683785173295796e-05
3110000.0,8.641926990625377e-05
3120000.0,9.801467807954957e-05
3130000.0,0.00011198296625284537
3140000.0,0.00012871919442614116
3150000.0,0.00014864712259943697
3160000.0,0.00017220887077273276
3170000.0,0.00019985701894602856
3180000.0,0.00023208566711932434
3190000.0,0.00026970991529262015
3200000.0,0.00031666066346591596
3201500.005,0.0003258970557438844
3203000.0,0.0003366549479179047
3204000.0,0.00034537024273523426
3205000.0,0.00035614423755256385
3206000.0,0.0003704701323698934
3206750.008,0.0003857679285660491
3207000.0,0.000391507127187223
3207625.011,0.00041253852406239694
3207937.509,0.00042389907242202285
3208062.509,0.000430357471774189
3208625.011,0.0004684856188797266
3208875.009,0.0004860053175632693
3209000.0,0.0004967513168218821
3209125.008,0.0005108573162572069
3209375.008,0.0005435254149615393
3209468.759,0.0005576843894860588
3209562.509,0.0005747071640001834
3209687.511,0.0006010771633731392
