energy,cross_section
1e-05,113.331518
1.103037e-05,107.908505
1.216691e-05,102.744988
1.342055e-05,97.8285493
1.480336e-05,93.147367
1.632865e-05,88.6901834
1.801111e-05,84.4462799
1.986691e-05,80.405451
2.191394e-05,76.5579793
2.417189e-05,72.8946125
2.666248e-05,69.406541
2.940971e-05,66.0853769
3.243999e-05,62.9231334
3.578251e-05,59.912206
3.946943e-05,57.0453541
4.353624e-05,54.3156836
4.802208e-05,51.7166303
5.297013e-05,49.241944
5.842801e-05,46.8856735
6.444825e-05,44.6421528
7.108881e-05,42.5059864
7.841358e-05,40.4720375
8.649308e-05,38.535415
9.540506e-05,36.6914614
0.0001052353,34.9357426
0.0001160784,33.2640365
0.0001280388,31.6723232
0.0001412315,30.1567747
0.0001557836,28.7137463
0.0001718351,27.3397683
0.0001895404,26.0315363
0.0002090701,24.7859044
0.000230612,23.5998771
0.0002543736,22.4706022
0.0002805835,21.3953643
0.0003094939,20.3715772
0.0003413832,19.3967794
0.0003765583,18.4686265
0.0004153577,17.5848864
0.0004581549,16.7434341
0.0005053618,15.9422462
0.0005574328,15.1793957
0.0006148689,14.4530483
0.0006782232,13.7614573
0.0007481052,13.1029596
0.0008251877,12.4759715
0.0009102125,11.8789854
0.001003998,11.3105655
0.0011074469,10.7693451
0.0012215549,10.2540225
0.0013474202,9.7633587
0.0014862542,9.29617348
0.0016393933,8.85134355
0.0018083114,8.42779908
0.0019946343,8.02452159
0.0022001553,7.64054131
0.0024268526,7.27493488
0.0026769081,6.92682304
0.0029527286,6.59536871
0.0032569687,6.27977481
0.0035925568,5.97928218
0.0039627229,5.69316869
0.0043710298,5.42074571
0.0048214074,5.16135865
0.0053181905,4.91438326
0.0058661607,4.67922621
0.006470592,4.45532145
0.007137302,4.24213129
0.0078727078,4.03914303
0.0086838876,3.84586929
0.0095786489,3.66184671
0.0105656037,3.48663598
0.0116542513,3.31982008
0.0128550698,3.16100534
0.014179617,3.00981725
0.0156406415,2.86589756
0.0172522055,2.72889705
0.0190298201,2.59847174
0.0209905947,2.4742846
0.0231534016,2.35601272
0.0252418805,2.25651384
0.0253,2.2539219
0.0279068348,2.14609667
0.03078227,2.04338985
0.0339539812,1.94557254
0.0374524958,1.85247237
0.0413114868,1.76390012
0.0455680964,1.67960683
0.050263294,1.59929845
0.0554422705,1.52273786
0.061154873,1.44978517
0.0674560846,1.38032187
0.0744065538,1.31420983
0.0820731781,1.25132884
0.0905297481,1.1915629
0.0998576572,1.13466193
0.1101466856,1.08036062
0.1214958641,1.02859298
0.1340144274,0.979307264
0.1478228652,0.932396931
0.1630540823,0.887784983
0.1798546777,0.845452356
0.1997857927,0.802261718
0.2203711114,0.763815364
0.2430774785,0.72720673
0.2681234404,0.692363188
0.2957500619,0.659197604
0.3262232461,0.62762892
0.3598362943,0.597650536
0.3996929779,0.56721423
0.4408761232,0.540031486
0.4863026542,0.514149824
0.5364097964,0.489516691
0.5916798257,0.466069664
0.6526447103,0.443751295
0.7198912305,0.422622643
0.7996680531,0.401029191
0.8820634101,0.381809972
0.9729485334,0.363519329
1.073198187,0.346104479
1.183777254,0.329526757
1.305750052,0.313750113
1.440290554,0.298730701
1.57756539,0.285514025
1.752387851,0.270919268
1.93294855,0.257950442
2.132113672,0.24558504
2.351800161,0.233823883
2.594122476,0.2226337
2.861412943,0.211982179
3.134135693,0.20260651
3.457067475,0.192920921
3.813273163,0.183703877
4.176923159,0.175523186
4.607300581,0.167098648
5.082022779,0.159122992
5.605658905,0.151504336
6.1832489,0.144279044
6.868126441,0.136925792
7.523100274,0.130842325
8.240130867,0.12503718
9.025944893,0.119467669
10.02568905,0.113362687
11.05870547,0.107936049
12.19816075,0.102788549
13.64484817,0.097221161
15.05077171,0.092599264
16.37059765,0.088802602
17.80616122,0.085161478
19.50423274,0.081365325
21.51388938,0.07750282
23.73061492,0.073810114
25.81159002,0.070834996
27.68447106,0.068396516
30.11216605,0.065595687
32.75274945,0.062916615
35.62488978,0.060347572
39.0203165,0.05766976
43.04085089,0.054948446
47.47564889,0.052345954
51.63886353,0.05024939
55.00050228,0.048694345
59.8235832,0.046715268
65.0696077,0.044824245
70.77566437,0.043012704
77.52132968,0.041126584
85.50889104,0.039203133
94.31946636,0.037366669
101.8768741,0.036012561
110.0344237,0.034679144
119.6835162,0.03329165
130.1787527,0.031966973
141.5943332,0.030699126
155.0973732,0.029379661
171.0781334,0.028037237
188.7055024,0.026757335
203.8156494,0.025815834
220.1465085,0.024888842
239.4515035,0.023926603
260.449384,0.023009924
283.2886019,0.022134701
310.2889852,0.021226826
342.2602159,0.020306461
369.6840339,0.019630397
399.2856096,0.018962451
437.3631887,0.018218956
479.048501,0.01751881
521.0570207,0.016906465
564.1447671,0.016357208
617.2904367,0.015767156
681.8944948,0.0151589
736.5317255,0.014726842
794.6981833,0.014309075
880.331887,0.013797804
964.2367763,0.013380486
1047.675129,0.013031982
1139.547415,0.012711192
1262.657183,0.012362831
1402.513354,0.012064883
1589.370713,0.011794686
1748.30522,0.011652311
1915.031067,0.011579264
2037.429761,0.011563912
2240.804872,0.011622659
2429.238305,0.011752989
2644.40323,0.011994768
2840.735625,0.012301671
2980.720005,0.012590344
3032.763205,0.012757852
3053.46221,0.012895783
3064.10741,0.013042941
3069.725713,0.013182045
3074.161205,0.013359515
3077.857466,0.013597486
3080.075205,0.013811614
3082.182081,0.014099968
3083.586657,0.014363723
3084.991231,0.014715155
3085.989219,0.015041971
3086.876316,0.015408731
3087.763421,0.015875089
3088.35482,0.016261046
3088.946221,0.016727498
3089.537619,0.017300492
3089.98117,0.017822974
3090.424705,0.018451489
3090.794339,0.019082442
3091.163963,0.019844994
3091.441192,0.020532696
3091.718406,0.021353856
3091.90321,0.02199723
3092.088031,0.022738138
3092.272841,0.023599893
3092.457657,0.024612509
3092.596269,0.025493554
3092.734877,0.026500431
3092.87349,0.027656706
3093.012089,0.028989994
3093.150706,0.030533361
3093.289308,0.032324731
3093.381705,0.033678467
3093.474121,0.035177286
3093.566526,0.03683702
3093.658937,0.038675709
3093.751338,0.040712386
3093.843751,0.042968524
3093.936154,0.045466206
3094.028562,0.048230121
3094.12096,0.051285775
3094.213374,0.054661707
3094.305779,0.058386231
3094.398188,0.062490693
3094.490588,0.067006565
3094.582999,0.071968392
3094.675401,0.07740947
3094.767808,0.08336595
3094.860205,0.089872664
3094.934139,0.095500199
3095.008064,0.101521086
3095.081993,0.107954704
3095.192883,0.118416779
3095.303766,0.129903582
3095.414657,0.142470514
3095.525543,0.156164765
3095.636435,0.171028954
3095.747313,0.187092982
3095.858208,0.20438436
3095.969089,0.22290851
3096.083673,0.243345657
3096.205649,0.266523798
3096.327632,0.291123289
3096.490269,0.325997884
3096.6529,0.363007096
3096.826621,0.404508407
3097.159282,0.487636401
3097.51412,0.576788654
3097.713715,0.624512719
3097.87635,0.660876353
3098.053765,0.697007536
3098.23119,0.728540584
3098.408605,0.754621947
3098.58603,0.774529208
3098.763445,0.787693577
3098.923123,0.793458874
3098.999416,0.794130826
3099.112371,0.792639528
3099.260221,0.786238182
3099.402157,0.775462405
3099.544093,0.760352728
3099.70969,0.737619901
3099.869372,0.710991193
3100.040874,0.677924866
3100.235301,0.635856444
3100.463725,0.581871473
3101.151353,0.409647512
3101.345499,0.363183167
3101.508591,0.326092278
3101.656163,0.294372511
3101.803721,0.26460513
3101.951296,0.236915373
3102.049673,0.219653078
3102.148047,0.203361097
3102.271018,0.184359842
3102.381697,0.168540924
3102.492362,0.153914685
3102.603046,0.140442584
3102.713714,0.128086421
3102.824388,0.116794736
3102.935059,0.106514377
3103.008844,0.10019356
3103.082619,0.094279425
3103.156407,0.088752085
3103.230185,0.083594973
3103.303967,0.07878869
3103.404803,0.072755033
3103.485963,0.068319261
3103.56713,0.064232829
3103.648289,0.06047366
3103.729452,0.057019079
3103.810601,0.053848493
3103.891773,0.050939935
3103.972931,0.04827531
3104.027031,0.046625026
3104.135246,0.043602781
3104.243452,0.040919669
3104.351673,0.038538426
3104.459884,0.036426122
3104.568101,0.03455193
3104.676307,0.032888484
3104.784526,0.031410588
3104.892735,0.030096287
3105.000949,0.02892553
3105.109153,0.027880839
3105.227214,0.026866389
3105.404298,0.025553004
3105.581367,0.024445753
3105.758455,0.023504141
3105.935528,0.022696258
3106.171631,0.021783777
3106.407736,0.02101826
3106.643838,0.020366184
3106.99798,0.019549063
3107.352146,0.018876385
3107.706298,0.018311334
3108.178502,0.017683801
3108.650704,0.017165488
3109.20161,0.016664968
3109.831222,0.016197128
3110.460832,0.01581365
3111.405235,0.015355239
3112.349656,0.014998769
3113.294063,0.014715387
3114.553278,0.014419206
3116.442095,0.014095348
3118.330919,0.013867308
3120.534544,0.013677699
3123.682582,0.013491958
3128.404633,0.013326376
3134.071099,0.013211612
3141.626385,0.013132954
3156.736961,0.013079474
3161.773813,0.013074179
3202.068684,0.013118883
3322.953294,0.013427881
3503.021006,0.014000424
3685.607115,0.014689515
3857.500266,0.015449058
4020.961507,0.016285597
4176.992682,0.017204753
4325.593808,0.018206314
4459.33481,0.019229336
4593.075833,0.020387796
4715.671755,0.021585893
4827.122603,0.022804823
4938.573447,0.024166274
5032.935155,0.02544407
5148.844025,0.027199375
5243.94875,0.028812843
5339.053465,0.030605947
5428.214148,0.032473743
5529.262913,0.034850353
5600.59145,0.036699398
5671.919993,0.038738017
5743.248525,0.040952917
5814.577073,0.043407608
5885.90561,0.046086734
5957.234153,0.049072959
6028.562685,0.052348591
6076.11505,0.05474151
6123.667405,0.05731132
6194.995953,0.061532956
6266.32449,0.066258467
6325.764944,0.070641173
6385.205393,0.075465568
6444.645847,0.080817429
6504.086285,0.086736011
6563.526747,0.093333525
6611.079104,0.099141003
6658.631467,0.105481573
6706.183824,0.112413106
6753.736187,0.119999443
6801.288544,0.128310509
6848.840907,0.137422146
6896.393264,0.147415472
6943.945627,0.158375559
6991.497984,0.170389067
7039.050347,0.183540444
7086.602704,0.197906072
7134.155067,0.213545745
7181.707424,0.230490648
7229.259787,0.248727186
7264.924045,0.263190754
7336.252593,0.293985841
7455.133485,0.347513069
7514.573935,0.373024826
7574.014393,0.395460732
7609.678655,0.406746465
7645.342933,0.415681592
7681.0072,0.422245107
7716.671473,0.425778289
7740.447653,0.426679004
7778.489533,0.425064029
7812.370597,0.420600646
7847.44046,0.413567721
7883.104733,0.403656086
7918.768995,0.391688714
7966.321355,0.372892372
8013.873715,0.351919349
8168.41889,0.279437438
8215.971245,0.258176296
8263.52361,0.238075057
8311.075965,0.21930232
8358.62833,0.201931047
8406.180685,0.185965526
8453.73305,0.17136364
8501.285405,0.158054211
8548.83777,0.145949751
8596.390125,0.13495551
8643.94249,0.12497555
8691.494845,0.115916701
8739.04721,0.107690915
8786.599565,0.100216591
8834.15193,0.093419155
8881.704285,0.087231225
8929.25665,0.081592515
8976.809005,0.076449688
9024.36137,0.071756284
9071.913725,0.067472995
9119.46609,0.063568719
9167.018445,0.060023432
9214.57081,0.056835734
9262.123165,0.054039959
9297.787447,0.052294025
9321.563627,0.051370603
9339.395764,0.050838043
9360.199917,0.050578406
9373.574026,0.05075057
9383.604607,0.05110154
9392.892176,0.051744637
9398.836219,0.052374049
9404.780266,0.053237617
9410.724303,0.054404975
9415.18235,0.055556783
9419.640382,0.05704022
9424.098417,0.05895583
9427.070441,0.060547443
9430.042462,0.062462047
9433.014481,0.064780242
9435.429249,0.067039628
9437.286767,0.069065922
9439.144281,0.071397695
9441.001794,0.07409535
9442.859307,0.077234454
9444.716822,0.080911913
9446.109958,0.084097665
9447.503087,0.087723915
9448.896223,0.09187574
9450.331583,0.096817167
9451.302564,0.100615715
9452.27355,0.104847293
9453.244526,0.109580244
9454.215515,0.114897061
9455.186493,0.120897806
9456.157477,0.127705696
9457.12845,0.13547366
9457.827852,0.141770151
9458.527243,0.148751763
9459.22664,0.156524524
9459.926026,0.165216364
9460.625425,0.174983958
9461.324814,0.186019857
9461.849367,0.195271979
9462.373905,0.205495656
9462.973384,0.218563426
9463.472953,0.230770844
9463.97252,0.244387192
9464.472084,0.259661504
9464.846759,0.272392193
9465.22143,0.286397056
9465.596109,0.301880089
9465.97078,0.319093462
9466.345455,0.338355296
9466.720115,0.360067863
9467.069821,0.383000152
9467.3321,0.402213416
9467.594372,0.423457924
9467.856648,0.447069334
9468.118909,0.473447668
9468.381194,0.503079136
9468.643464,0.536536695
9468.905737,0.574511814
9469.080587,0.602737106
9469.255433,0.633610465
9469.430277,0.66744399
9469.642592,0.713012614
9469.829935,0.757831452
9470.017262,0.807530156
9470.204608,0.862717784
9470.39194,0.92404815
9470.579276,0.992258352
9470.76661,1.06814604
9470.95395,1.15258947
9471.141283,1.24652915
9471.32862,1.35099183
9471.515942,1.46706041
9471.684561,1.58243398
9471.853165,1.70904437
9472.021772,1.84783932
9472.190372,1.99977853
9472.35898,2.16587344
9472.527584,2.34713223
9472.696193,2.54459602
9472.864788,2.75927142
9473.033401,2.99222378
9473.201999,3.24440482
9473.314393,3.42368662
9473.489248,3.72109201
9473.664093,4.0418239
9473.838943,4.38676479
9474.013784,4.75661804
9474.188636,5.15202002
9474.363479,5.57333834
9474.538326,6.02083114
9474.77562,6.66995993
9475.025411,7.40451291
9475.275196,8.1896765
9475.587424,9.23735222
9475.93712,10.4872672
9476.38673,12.1845372
9477.310913,15.773267
9477.723059,17.2946882
9478.107026,18.5950448
9478.456516,19.6392522
9478.765205,20.4232372
9479.029813,20.9756473
9479.29441,21.4060778
9479.584739,21.7278851
9479.812591,21.8651411
9480.0,21.900291
9480.290343,21.8154372
9480.58801,21.5549651
9480.852618,21.1812741
9481.117215,20.6815787
9481.396516,20.0283861
9481.705205,19.1730556
9482.058013,18.051338
9482.46961,16.5945238
9482.936338,14.8211467
9483.812829,11.4214022
9484.171138,10.0933851
9484.483515,8.99453199
9484.777521,8.02162309
9484.998013,7.33546845
9485.218523,6.6888761
9485.439018,6.0832453
9485.58601,5.70256401
9485.769769,5.25266661
9485.953518,4.83149219
9486.137272,4.43856651
9486.321017,4.07326898
9486.504773,3.73472235
9486.68852,3.42198474
9486.872271,3.13392439
9487.056013,2.86936542
9487.217957,2.65465651
9487.379886,2.45633098
9487.541818,2.27345459
9487.703743,2.10512589
9487.865676,1.95042064
9488.027604,1.80845454
9488.189539,1.67834403
9488.351458,1.55925504
9488.513396,1.45034397
9488.675319,1.35084918
9488.85907,1.24839118
9489.010668,1.17152322
9489.162263,1.1009993
9489.313856,1.03630648
9489.465451,0.976962194
9489.617046,0.922517078
9489.76864,0.872553755
9489.92023,0.826683348
9490.071824,0.784544487
9490.223421,0.745805483
9490.375015,0.710162379
9490.602396,0.661896906
9490.829795,0.619119191
9491.057179,0.58109701
9491.30639,0.544126606
9491.501629,0.518141148
9491.696865,0.49444123
9491.989708,0.46260965
9492.28257,0.434576863
9492.575417,0.409728757
9492.86827,0.387559657
9493.161119,0.367659393
9493.453975,0.349691716
9493.746824,0.333382941
9494.137289,0.313833652
9494.458852,0.299343685
9494.837835,0.283854514
9495.216826,0.269844803
9495.595809,0.257110941
9496.10112,0.241833476
9496.606433,0.228214584
9497.111746,0.216004558
9497.617058,0.205003012
9498.122366,0.195046501
9498.78846,0.183293552
9499.408623,0.173552593
9500.028771,0.164802043
9500.648937,0.15690689
9501.269089,0.149755952
9502.095964,0.141219434
9502.92284,0.13365922
9503.749714,0.126928669
9504.576585,0.12090832
9505.633147,0.114094789
9506.59784,0.108605699
9507.562519,0.103709571
9508.527216,0.099322216
9509.491898,0.095373999
9510.778147,0.090693211
9512.064397,0.086577199
9513.350645,0.082936036
9514.63689,0.07969776
9516.382514,0.075844772
9518.036271,0.072675551
9519.690013,0.069894886
9521.895016,0.066686123
9524.10001,0.06394451
9526.305016,0.061582445
9528.510013,0.059529153
9531.817514,0.056907027
9534.390014,0.05517285
9537.330018,0.053455007
9541.740016,0.051297561
9546.150018,0.049528059
9550.560013,0.048059054
9556.440005,0.046437205
9563.055013,0.044940649
9569.67001,0.043714055
9579.592514,0.042232023
9593.925013,0.040585839
9604.95001,0.039562287
9621.487518,0.038302555
9636.555016,0.037336001
9665.220005,0.03580485
9690.21001,0.034668628
9729.900013,0.033108914
9774.000005,0.031574109
9824.274013,0.030024818
9880.882494,0.028440562
9920.732973,0.027416749
9977.663632,0.026059137
10034.59428,0.024808883
10091.52494,0.023653342
10172.39615,0.022160543
10244.21782,0.020951214
10316.03957,0.019857862
10381.98113,0.018946995
10423.9821,0.018387155
10507.98405,0.017388075
10579.3858,0.016637236
10650.78745,0.015984326
10707.48888,0.015552291
10759.9901,0.015229395
10793.59085,0.015081501
10822.9916,0.015000234
10852.39225,0.014977639
10877.59293,0.015022844
10902.7935,0.01514472
10925.89408,0.015353999
10944.79445,0.015619493
10963.69501,0.015999828
10976.29531,0.016340777
10988.89559,0.016774029
11001.49589,0.017325099
11010.94617,0.017837443
11020.3963,0.018457838
11029.84662,0.019214392
11036.14676,0.019808486
11042.44687,0.02049046
11048.74702,0.021286725
11055.04721,0.022214893
11061.34737,0.023303448
11066.07251,0.024247067
11070.7975,0.025321225
11075.12899,0.026441274
11079.46033,0.027714296
11083.79171,0.02916713
11088.12302,0.03083063
11091.0106,0.032080707
11093.89809,0.033464386
11097.83581,0.035599086
11100.46089,0.03720569
11103.08594,0.038982937
11105.711,0.04095562
11108.33607,0.043153188
11110.96112,0.045610835
11113.58614,0.048370966
11115.81744,0.050993078
11117.65501,0.053370976
11119.49256,0.055972485
11121.33008,0.058826032
11123.16761,0.061964379
11125.00516,0.065425773
11126.84268,0.06925628
11128.68018,0.07351241
11130.25521,0.077550739
11132.22401,0.083185496
11133.53659,0.087356692
11134.84907,0.091905458
11136.16167,0.096879281
11137.47417,0.102331688
11138.78673,0.108326813
11140.09918,0.114938453
11141.18211,0.120920162
11142.26494,0.127438288
11143.34782,0.134560244
11144.4306,0.142362414
11145.51351,0.150937
11146.59631,0.160388665
11147.67917,0.170844294
11148.76192,0.182451378
11149.91379,0.196264322
11150.68163,0.206433989
11151.44944,0.217476601
11152.21727,0.229496712
11152.98511,0.242614643
11153.75292,0.256969487
11154.52071,0.272724435
11155.21307,0.288290996
11155.83,0.303385607
11156.4469,0.319773098
11157.06378,0.337609335
11157.68067,0.357076316
11158.29757,0.378385079
11158.91445,0.401781488
11159.5313,0.427556767
11160.10225,0.453834353
11160.62729,0.480338547
11161.15232,0.509388957
11161.67731,0.541337527
11162.20232,0.576605021
11162.72734,0.615692823
11163.25234,0.659202747
11163.6461,0.69517692
11164.03972,0.734404792
11164.45981,0.780364631
11164.8798,0.831149325
11165.29984,0.887518904
11165.71979,0.950341628
11166.03491,1.00236561
11166.34988,1.05912834
11166.6649,1.12126812
11166.97983,1.18945811
11167.29485,1.26452895
11167.55407,1.33209468
11167.86256,1.42016055
11168.17103,1.51757312
11168.47947,1.62555299
11168.78792,1.74548515
11169.09639,1.87890183
11169.32774,1.98882381
11169.55901,2.10801401
11169.79036,2.23737745
11169.99676,2.36205435
11170.25536,2.53164671
11170.51394,2.71735817
11170.77249,2.9205856
11171.03106,3.1427989
11171.28964,3.38546367
11171.54819,3.65000339
11171.80672,3.93784081
11172.04101,4.21997521
11172.25105,4.49093071
11172.56604,4.93057146
11172.88106,5.41175584
11173.19602,5.93553678
11173.51104,6.5027453
11173.78404,7.02917496
11174.12007,7.72054248
11174.45608,8.45732367
11174.79206,9.23552255
11175.25405,10.3627699
11176.13596,12.6269728
11176.89205,14.5606415
11177.39606,15.7668116
11177.77411,16.5935463
11178.15201,17.3306303
11178.54588,17.9834125
11178.9396,18.4995256
11179.30186,18.8405737
11179.60107,19.0189164
11179.90034,19.100274
11180.0,19.1055247
11180.29939,19.0555206
11180.59863,18.9078518
11180.92941,18.634223
11181.32313,18.1656552
11181.71693,17.5552282
11182.10017,16.8420414
11182.35216,16.3183343
11182.85612,15.1670365
11183.48625,13.5954848
11184.5993,10.7247848
11185.04022,9.63185639
11185.3763,8.83552138
11185.71229,8.07835017
11186.04832,7.3647378
11186.38425,6.69819921
11186.69939,6.11713369
11187.01438,5.57963188
11187.3294,5.08500731
11187.64436,4.63239221
11187.85437,4.35308674
11188.06429,4.09124456
11188.32295,3.79146368
11188.58151,3.51578089
11188.84012,3.26262819
11189.09863,3.03069972
11189.35727,2.81833394
11189.6158,2.62426652
11189.87439,2.44695859
11190.13287,2.28513634
11190.36434,2.15223527
