energy,cross_section
1e-05,35.1459183
1.110823e-05,33.4556001
1.233856e-05,31.8583102
1.370594e-05,30.3478422
1.5224e-05,28.921616
1.691114e-05,27.5741163
1.878422e-05,26.3029829
2.08659e-05,25.1033081
2.317702e-05,23.9729356
2.57455e-05,22.9074924
2.859711e-05,21.9050071
3.176623e-05,20.9615761
3.528471e-05,20.0753915
3.919493e-05,19.2429594
4.38434e-05,18.4121715
4.904317e-05,17.6373196
5.485962e-05,16.9156653
6.13659e-05,16.2445938
6.864382e-05,15.6216012
7.678489e-05,15.0442821
8.649308e-05,14.478447
9.743359e-05,13.958638
0.0001097525,13.4826857
0.000124501,13.0233782
0.0001412315,12.6072131
0.0001613409,12.2114693
0.0001856039,11.8397949
0.0002135158,11.5103396
0.0002473452,11.2058398
0.0002885564,10.9277646
0.0003413832,10.6669049
0.0004067308,10.4363633
0.0004913985,10.2279545
0.0006063149,10.0377642
0.0007640118,9.86973363
0.0009900305,9.72219506
0.0013286749,9.59505838
0.0018728144,9.48703067
0.0028312006,9.39766757
0.0047878704,9.32613619
0.0097137864,9.27316307
0.0252418805,9.23973239
0.0253,9.23967935
0.2625413332,9.18843678
1.802182725,8.93309209
2.801840703,8.70943588
3.530571029,8.48775379
4.061513462,8.26975258
4.468226155,8.04764794
4.766152253,7.83608506
5.005555566,7.62024027
5.220416697,7.37495292
5.368757141,7.16493954
5.482906697,6.97238399
5.599208529,6.73953841
5.678203282,6.55441955
5.75831251,6.33839899
5.839551935,6.08285392
5.901341117,5.8577323
5.963711445,5.59692795
6.026667035,5.2914741
6.069030329,5.0565721
6.111692458,4.79105919
6.143913185,4.56808931
6.176133897,4.32279033
6.208809208,4.04791988
6.241484504,3.74291051
6.263268029,3.52070878
6.285358896,3.27835299
6.307449753,3.01748294
6.329540615,2.73687904
6.351631467,2.43575435
6.372786027,2.12832248
6.393940571,1.80417263
6.433003274,1.1846806
6.444348561,1.0113849
6.450399396,0.923496532
6.456450221,0.840405018
6.460988351,0.782236516
6.465526466,0.728594819
6.468551871,0.695869626
6.472333648,0.659031738
6.47516998,0.63484499
6.478006305,0.614069294
6.480842633,0.597184582
6.483678947,0.584742306
6.485948013,0.578410768
6.488217069,0.575697538
6.49048613,0.577019495
6.492187926,0.580939742
6.493700633,0.586728806
6.495591522,0.597283378
6.497482408,0.611865319
6.499373292,0.630877884
6.50103727,0.651629003
6.502474343,0.672849358
6.503911414,0.697376781
6.505348482,0.725469589
6.506747736,0.756516283
6.508109175,0.79049113
6.509470611,0.828464668
6.510832045,0.870740777
6.512136755,0.915597134
6.513384741,0.962771919
6.514632724,1.0144197
6.515880705,1.07085785
6.51733668,1.14321364
6.518925023,1.23080577
6.520437731,1.32336669
6.521950437,1.42564254
6.52346314,1.53849066
6.524824576,1.64986454
6.526034744,1.75728424
6.527244909,1.87320912
6.528455072,1.99823653
6.529589603,2.12428491
6.531177945,2.31621234
6.532766294,2.52768931
6.534354636,2.76052379
6.535942982,3.01668737
6.537531312,3.29831839
6.538741485,3.53142274
6.539951648,3.78176045
6.541161816,4.05050786
6.542371974,4.33890726
6.543884687,4.72906984
6.545397389,5.15476586
6.546910097,5.61895777
6.548422794,6.12481191
6.54993551,6.67573184
6.551448217,7.27533273
6.552960928,7.92748615
6.554473629,8.63629994
6.555835078,9.32629717
6.557196513,10.0690908
6.558557951,10.8682344
6.559919381,11.7274436
6.561280819,12.6506303
6.562642255,13.641872
6.564003697,14.7054408
6.565365124,15.8457647
6.566726569,17.0674964
6.568088,18.3754047
6.569525071,19.8549789
6.57111341,21.6157472
6.572701756,23.5164211
6.574290095,25.5656822
6.575878438,27.7724863
6.577466765,30.1459605
6.579055122,32.6955056
6.580643464,35.4305238
6.582231809,38.3606091
6.583820147,41.4953463
6.585408493,44.8443582
6.586996834,48.4171394
6.58858518,52.2230899
6.590173512,56.2713248
6.592291302,62.0612458
6.594409082,68.3176489
6.596526881,75.0590645
6.598644669,82.3019305
6.600762463,90.0605029
6.602880246,98.3462008
6.604998042,107.16744
6.607115828,116.528895
6.609233618,126.431424
6.612380049,142.133943
6.615465967,158.655787
6.618551893,176.234725
6.622303409,198.913861
6.626841518,227.999608
6.632892353,268.824192
6.64378384,343.773492
6.648624502,375.468881
6.653465164,404.765154
6.656974646,423.945559
6.660242085,439.897679
6.66350954,453.74986
6.666655968,464.895885
6.669923415,474.014831
6.673892757,481.531488
6.677426435,484.820951
6.679846766,485.202701
6.682932696,483.497365
6.686381665,478.750011
6.690012164,470.656831
6.693642653,459.607567
6.697273157,445.883262
6.700903651,429.813001
6.705744313,405.369899
6.710584975,378.325542
6.717845963,334.916981
6.726922209,279.835096
6.733124311,243.930516
6.737057351,222.502526
6.740990389,202.354992
6.744923425,183.620866
6.748402651,168.290319
6.751428069,155.92653
6.754453484,144.461255
6.757478896,133.880032
6.76050431,124.157664
6.763529725,115.260305
6.766555138,107.147414
6.769580548,99.7735654
6.772605961,93.0901071
6.775631379,87.0466544
6.778656793,81.5923454
6.781682206,76.6768723
6.784707619,72.2513441
6.787733034,68.2689628
6.790758447,64.6855103
6.793783857,61.4596741
6.797111812,58.2787963
6.800742312,55.1952428
6.80437281,52.4627338
6.808003305,50.0337494
6.811633801,47.8667616
6.815264299,45.9257648
6.820710038,43.3713924
6.824340526,41.8692627
6.82978628,39.864861
6.835232023,38.1088104
6.840677772,36.5560236
6.84612351,35.1712882
6.854292137,33.3504964
6.862460748,31.7769336
6.871688261,30.2343945
6.879251799,29.1207481
6.890597098,27.6558076
6.901942402,26.3908676
6.913287698,25.2867357
6.924633001,24.3141397
6.935978302,23.4506674
6.951105373,22.43939
6.966232442,21.5594257
6.981359508,20.7867086
7.004050109,19.7894147
7.026740716,18.9462863
7.049431308,18.2241479
7.074295012,17.5430883
7.099158706,16.9544064
7.136454255,16.207215
7.174100581,15.5810139
7.211922303,15.0509872
7.24974401,14.5984948
7.300884434,14.0823137
7.352024848,13.6511084
7.417284649,13.1939153
7.485162931,12.8018193
7.576287964,12.3734353
7.683838009,11.971721
7.805788065,11.6113073
7.934038113,11.3085578
8.102730213,10.9927408
8.274602986,10.7375981
8.509729482,10.4618987
8.813271424,10.1878846
9.191576975,9.92643602
9.721364029,9.64714543
10.46453854,9.34610161
11.68499683,8.95011054
13.76720986,8.31538217
14.76615438,7.96289325
15.50785668,7.65451574
16.06102177,7.38505388
16.51740279,7.12717811
16.98675208,6.81702142
17.34707012,6.53711448
17.59180605,6.32041998
17.83999477,6.07335146
18.09168499,5.7885188
18.28311589,5.5434541
18.42964547,5.33592367
18.62486871,5.02758663
18.79362462,4.72621862
18.90612854,4.50412297
19.01581987,4.26880493
19.1226986,4.01941772
19.2323899,3.74020658
19.33476847,3.45568764
19.4258966,3.18086178
19.51882489,2.87765088
19.59352749,2.61579822
19.67115515,2.32582143
19.74709537,2.02436915
19.81459777,1.74228482
19.88491261,1.43630856
20.02091988,0.829393387
20.05852499,0.66657976
20.08396871,0.560663773
20.10287163,0.485213212
20.11799405,0.427403528
20.13311637,0.372352297
20.14542738,0.329932964
20.15773824,0.290009597
20.16594543,0.264956814
20.17517872,0.238434797
20.18133417,0.221817559
20.1874896,0.206118676
20.1931321,0.192587177
20.19826167,0.181042388
20.20339121,0.170259279
20.20852073,0.160279639
20.21467618,0.149426597
20.22006225,0.140994242
20.22544818,0.133614926
20.23006488,0.128173064
20.23468143,0.123588929
20.23904153,0.120084479
20.2428886,0.117687895
20.24673573,0.115970857
20.24981346,0.115104962
20.25385312,0.114679701
20.25673846,0.114887533
20.2598162,0.115595544
20.26391979,0.117347993
20.26776696,0.119862582
20.27161406,0.123255659
20.27507658,0.127090209
20.27828248,0.131324382
20.28161669,0.13645009
20.28546383,0.143312754
20.28892633,0.150390877
20.29264521,0.158981661
20.29674884,0.169697276
20.29982656,0.178618022
20.30316077,0.189169428
20.30675147,0.201601376
20.31085509,0.217220278
20.31431754,0.231616617
20.31777984,0.247171289
20.32162712,0.265868023
20.32547426,0.286111229
20.32957791,0.309483193
20.33419446,0.338072814
20.33881109,0.369214604
20.34394059,0.406969031
20.34753123,0.435470051
20.35112191,0.465757479
20.35471249,0.497902336
20.3588162,0.537013686
20.36291981,0.578768605
20.36702346,0.623293263
20.37112702,0.670717324
20.37625664,0.734289982
20.38138616,0.802897441
20.38651573,0.876848604
20.3916452,0.956469742
20.3967748,1.04211633
20.4019043,1.13416187
20.40703384,1.23301378
20.41216329,1.3391039
20.41678002,1.44116603
20.42139659,1.54983328
20.42755205,1.70568259
20.43370749,1.87498091
20.43858056,2.0192708
20.44396657,2.19007229
20.44935264,2.37360981
20.45473864,2.57082507
20.46012468,2.78275532
20.46551057,3.01052248
20.4708967,3.25538161
20.47628269,3.51867446
20.48166871,3.80190582
20.48705466,4.10672074
20.49244068,4.43495519
20.49833964,4.82372384
20.50449515,5.26518042
20.5106505,5.74696486
20.51680604,6.27349883
20.52296144,6.8498035
20.52911689,7.48173519
20.53527232,8.176077
20.54142782,8.94079583
20.54553145,9.49426109
20.5496351,10.0863323
20.55373871,10.7205979
20.55784231,11.4011091
20.56194594,12.1324573
20.56604961,12.9198352
20.57015326,13.7691277
20.57425688,14.6870445
20.57836051,15.6812451
20.58246415,16.7604665
20.58656777,17.9346845
20.59067137,19.2153208
20.594775,20.6154699
20.59887867,22.1501012
20.60298231,23.8363195
20.60708593,25.6937116
20.61118956,27.7446797
20.61426733,29.4252031
20.61734495,31.2408977
20.62042276,33.2052722
20.62350042,35.33276
20.62657815,37.6396062
20.62965586,40.1434291
20.63273365,42.8636788
20.63581137,45.8214229
20.63888912,49.0399256
20.64196672,52.5442287
20.64504457,56.3622784
20.64812226,60.5234489
20.6512,65.0603213
20.65427766,70.0076934
20.65735539,75.4035271
20.66022793,80.8798792
20.66299794,86.5971661
20.66576781,92.7766715
20.66853786,99.4549086
20.67130777,106.668896
20.67407773,114.459058
20.67684765,122.867151
20.67961765,131.937627
20.68238757,141.716149
20.68515753,152.251264
20.68792734,163.592305
20.69121033,178.150553
20.69449323,194.003913
20.69777617,211.245684
20.70105902,229.970249
20.70434198,250.276195
20.70762485,272.260904
20.71090777,296.024872
20.71419059,321.666467
20.71706323,345.722678
20.71993576,371.356636
20.72280835,398.63287
20.72568084,427.610889
20.72855345,458.351093
20.73286229,507.880547
20.73717098,561.657486
20.74147991,619.825687
20.7457887,682.486225
20.75009752,749.709615
20.75440627,821.518028
20.75871509,897.88845
20.76240835,966.91941
20.76692238,1055.6363
20.77369336,1197.17757
20.78025919,1343.18601
20.78846645,1535.6625
20.80323947,1898.7266
20.81596071,2210.5426
20.82580937,2437.48199
20.83237518,2576.14451
20.838941,2701.22308
20.84550681,2809.93836
20.85207262,2899.81005
20.85863843,2968.75462
20.86421937,3009.69197
20.87078518,3036.10556
20.87538125,3040.31361
20.88112638,3029.00007
20.88687147,2999.56314
20.89343728,2944.56515
20.90000309,2868.2118
20.9065689,2772.45934
20.91313471,2659.66843
20.91970052,2532.5077
20.92954919,2321.13661
20.94103941,2055.18527
20.95925955,1626.00035
20.96861589,1416.14158
20.9751817,1276.9834
20.98174753,1145.97559
20.98667183,1053.61784
20.99200656,959.597889
20.99611023,891.664578
21.00021387,827.592892
21.00431749,767.380041
21.00842112,710.987629
21.01252477,658.346941
21.01662838,609.362991
21.02073198,563.917726
21.02483561,521.873987
21.02893928,483.080758
21.03304293,447.376526
21.03714655,414.591449
21.04125018,384.550805
21.04535382,357.078303
21.04945744,331.998354
21.05356104,309.137627
21.05756208,288.823372
21.06146058,270.759891
21.06535904,254.268446
21.06925749,239.220754
21.07315594,225.495127
21.07705441,212.977094
21.08095286,201.559525
21.08485128,191.142455
21.08874973,181.633037
21.09264821,172.945705
21.09654666,165.001895
21.10239424,154.324461
21.10824199,144.94186
21.1140896,136.666929
21.12055283,128.615747
21.12568241,122.925417
21.13081197,117.768065
21.1385062,110.885657
21.14620061,104.861194
21.15389487,99.5429651
21.16158919,94.8098846
21.16928347,90.5657692
21.17954252,85.5371003
21.18980161,81.1016034
21.2000606,77.1530334
21.21031977,73.6101604
21.22057883,70.4101485
21.23596751,66.1470215
21.25135611,62.4170071
21.26674474,59.1244261
21.28213323,56.1961998
21.29649603,53.7412035
21.31804015,50.4803985
21.33958413,47.6397237
21.36112829,45.1437668
21.3826723,42.9342036
21.40729409,40.7012007
21.42781229,39.0412558
21.45858951,36.836934
21.48936677,34.9176379
21.52014396,33.2324985
21.55092121,31.7419241
21.58169845,30.4146667
21.62273479,28.8565618
21.66377111,27.4984356
21.7048074,26.3046873
21.74994735,25.1485738
21.79919096,24.0425452
21.84843454,23.070379
21.8976781,22.2092024
21.96096041,21.2368015
22.03828148,20.2151506
22.11560253,19.3401173
22.19292355,18.5823788
22.27079003,17.9154091
22.34920197,17.3237628
22.46681979,16.5577047
22.58226692,15.9185745
22.69337253,15.3867625
22.84151333,14.7779438
23.00180576,14.2200303
23.16773687,13.728086
23.39273757,13.1666395
23.61773827,12.6969581
23.8989891,12.204887
24.24009017,11.71095
24.59086632,11.2868451
25.01274263,10.8557297
25.48570625,10.4435019
26.1170955,9.9698742
27.05220016,9.36040744
29.0851355,8.1324419
29.91160246,7.58989615
30.5460787,7.12764466
30.97702889,6.78125832
31.414059,6.39514674
31.74645595,6.07327396
32.08197914,5.71737008
32.42065079,5.32120528
32.6485455,5.03027027
32.87804781,4.71459862
33.10915771,4.37079573
33.34189788,3.99537348
33.51767576,3.69066239
33.69345348,3.36567553
33.87171133,3.01436122
34.04996904,2.64050582
34.21774432,2.2682395
34.36455462,1.92754475
34.53583338,1.51627751
34.7557978,0.98125883
34.84481838,0.770398286
34.90591087,0.630899253
34.95129387,0.531392705
34.98620393,0.457962318
35.01413194,0.401573667
35.0438054,0.344341361
35.06562421,0.304264513
35.08744292,0.26609884
35.10838894,0.231449897
35.12584397,0.204210945
35.13980797,0.183579651
35.15377195,0.164053224
35.1651177,0.149051398
35.17820893,0.132760963
35.18693647,0.122538365
35.1956639,0.112849957
35.20613701,0.101958748
35.213119,0.095161265
35.22010097,0.088748121
35.22882845,0.081290682
35.23668324,0.075128934
35.24453787,0.069507566
35.25108363,0.065249478
35.25762924,0.061391467
35.26373852,0.058161901
35.26897499,0.055686688
35.27421153,0.053488573
35.27857523,0.051873233
35.28381167,0.050200248
35.2886118,0.048926492
35.29297563,0.047988831
35.29864852,0.04709053
35.30366687,0.046604813
35.30824875,0.046420402
35.31348521,0.046519158
35.31872176,0.046955498
35.32308549,0.0475827
35.32755842,0.048479518
35.33312217,0.049961512
35.33792223,0.051573799
35.34315867,0.053693451
35.34839523,0.056198255
35.35297724,0.058713001
35.35886825,0.062399618
35.36323193,0.065466624
35.36759575,0.068826139
35.37195946,0.072483727
35.37719602,0.077274742
35.38243248,0.082513797
35.3883236,0.088956718
35.39421457,0.095995565
35.40032381,0.103941876
35.40686945,0.113207
35.41341517,0.123271991
35.42083355,0.135675838
35.42868834,0.150002467
35.43654298,0.165599426
35.44265229,0.1786385
35.4487615,0.192496135
35.45487076,0.207195694
35.46097992,0.222760537
35.467962,0.241640658
35.47494399,0.261720666
35.48192602,0.283039991
35.48890795,0.305638551
35.49763552,0.33575048
35.50636299,0.368011783
35.5150905,0.402511787
35.52381792,0.439342687
35.53429098,0.48675474
35.54476394,0.53783958
35.55523695,0.592783897
35.56570986,0.651783274
35.57487388,0.706898794
35.58403776,0.7654236
35.59320167,0.827512513
35.60542019,0.916121483
35.61763867,1.0117591
35.62985722,1.11485947
35.639021,1.19735807
35.65123953,1.31465106
35.66345795,1.44075874
35.67393108,1.55629253
35.68440407,1.6790873
35.69836807,1.85480467
35.71233205,2.04516187
35.7236778,2.21136663
35.73676902,2.41689096
35.74986031,2.63816229
35.76295153,2.87632505
35.77604278,3.13262626
35.78913389,3.4084151
35.80222528,3.70517336
35.81531653,4.02449525
35.82840781,4.36813439
35.84149902,4.73799821
35.8545903,5.13618031
35.86768154,5.56496551
35.88077284,6.02686657
35.89386399,6.52463256
35.90695533,7.06130955
35.92004651,7.64022668
35.93313777,8.26508414
35.94622901,8.9399613
35.95932033,9.66938882
35.97241157,10.4583857
35.98550285,11.3125557
35.99859398,12.238132
36.01168535,13.2421322
36.02477658,14.3323674
36.03786784,15.5176731
36.05095903,16.8079925
36.06405029,18.2146085
36.07714154,19.7503123
36.09023286,21.4297062
36.10332403,23.2694616
36.11641538,25.2888236
36.12950659,27.5099106
36.14259785,29.9584929
36.15568908,32.6646087
36.16441661,34.628971
36.17314404,36.7353589
36.1818716,38.9973279
36.19059906,41.4300503
36.19932656,44.0508241
36.20805397,46.8792533
36.21590882,49.620998
36.22376357,52.5678423
36.23161836,55.7412005
36.23947306,59.165491
36.24732788,62.8690171
36.25518261,66.8843337
36.26303738,71.2495276
36.27089205,76.0089722
36.27839779,80.9733983
36.28590342,86.3990076
36.29340911,92.3488567
36.3009147,98.8970069
36.30842041,106.13127
36.31592602,114.155045
36.32155534,120.764146
36.32718451,127.94559
36.33268284,135.577793
36.33791933,143.479922
36.3431559,152.070759
36.34839239,161.428066
36.35362892,171.639351
36.3588653,182.801785
36.36410192,195.025043
36.36933839,208.429304
36.3745749,223.149392
36.37981134,239.333721
36.38504785,257.146917
36.38958614,274.041516
36.39377541,290.953333
36.39796453,309.239695
36.40215383,329.01826
36.40634299,350.411516
36.4105322,373.552596
36.41472137,398.581306
36.41891062,425.646882
36.42309979,454.905083
36.427289,486.521464
36.43147806,520.667154
36.4356674,557.52596
36.43985659,597.281475
36.44404582,640.129122
36.44823497,686.267244
36.4524242,735.901954
36.45661339,789.240326
36.46080264,846.49466
36.46499174,907.874433
36.46918102,973.596927
36.47337015,1043.86731
36.47860665,1138.41979
36.48349408,1233.71979
36.48838149,1336.13519
36.49326887,1445.94601
36.49815627,1563.40662
36.50304368,1688.73829
36.50793106,1822.12283
36.51281842,1963.69839
36.51910221,2157.89676
36.52486242,2347.97469
36.53062248,2549.48932
36.5383027,2835.55745
36.54598283,3140.5683
36.55415188,3484.1279
36.56504378,3968.61409
36.58005499,4671.99955
36.6023974,5739.58423
36.6135686,6252.07858
36.6247398,6729.59033
36.63311828,7055.24478
36.64149665,7345.94163
36.64987508,7595.80967
36.65825341,7799.67261
36.66621297,7946.82467
36.67445165,8048.36196
36.68338861,8097.81013
36.68590218,8100.16441
36.69400125,8073.23895
36.70182109,7997.92316
36.71019957,7865.33345
36.71857795,7682.13388
36.72695638,7452.48608
36.7353347,7181.44374
36.74371318,6874.74635
36.75209155,6538.64461
36.76326275,6056.05049
36.78560516,5030.49891
36.80375839,4201.88831
36.81437103,3741.18187
36.82400623,3345.85424
36.83364128,2976.4596
36.84201982,2678.40459
36.84760544,2492.24597
36.85319103,2316.3113
36.85877664,2150.63698
36.86436226,1995.16157
36.86994785,1849.73678
36.87553342,1714.13687
36.88181722,1572.96532
36.88705379,1464.18314
36.89229021,1363.11846
36.89752681,1269.4178
36.90276327,1182.72202
36.90799978,1102.65017
36.91323625,1028.81994
36.9184728,960.844536
36.92370927,898.343507
36.92894578,840.939673
36.93418214,788.268938
36.93941878,739.973494
36.94465527,695.718264
36.9498918,655.178311
36.95512826,618.048377
36.96036479,584.039162
36.96560128,552.881433
36.96909226,533.568663
36.97607422,498.131267
36.98305624,466.518206
36.99003815,438.265783
36.99571112,417.497539
37.00138399,398.476095
37.00989337,372.832058
37.01840268,350.190624
37.02691203,330.103048
37.03542122,312.191465
37.04393066,296.137227
37.05243995,281.67475
37.05811276,272.805702
37.06945852,256.669314
37.08080419,242.360606
37.09324101,228.419416
37.10567769,216.000307
37.1181144,204.858297
37.13055103,194.799879
37.14713322,182.810812
37.16371552,172.187118
37.18029773,162.706449
37.19687998,154.193907
37.21346214,146.509793
37.23091723,139.191666
37.24837222,132.557561
37.26582726,126.518127
37.29200979,118.414725
37.31819224,111.281675
37.34437476,104.959825
37.37055726,99.3227772
37.39673982,94.2687677
37.42292223,89.7150276
37.44910483,85.5934116
37.47528728,81.8474632
37.50845179,77.5686947
37.53987083,73.9293896
37.57128985,70.6367301
37.61841826,66.249749
37.66554686,62.4177477
37.71267531,59.0451965
37.76154933,55.9529133
37.81391432,53.0232438
37.86627938,50.426784
37.91864437,48.1114897
37.95355434,46.7030946
38.02337428,44.1643065
38.09319437,41.9406208
38.16301436,39.9783263
38.23283439,38.2350446
38.30265433,36.676955
38.38643842,35.0137244
38.47022241,33.5407114
