energy,cross_section
1e-05,16.7288184
1.103037e-05,15.9283297
1.216691e-05,15.166145
1.342055e-05,14.4404316
1.480336e-05,13.7494442
1.632865e-05,13.0915212
1.801111e-05,12.4650804
1.986691e-05,11.8686153
2.191394e-05,11.3006916
2.417189e-05,10.7599435
2.666248e-05,10.2450708
2.940971e-05,9.75483508
3.243999e-05,9.28805762
3.578251e-05,8.84361588
3.946943e-05,8.42044106
4.353624e-05,8.01751553
4.802208e-05,7.63387034
5.297013e-05,7.26858292
5.842801e-05,6.92077481
6.444825e-05,6.58960964
7.108881e-05,6.27429101
7.841358e-05,5.97406065
8.649308e-05,5.68819658
9.540506e-05,5.41601136
0.0001052353,5.15685044
0.0001160784,4.9100906
0.0001280388,4.67513843
0.0001412315,4.45142894
0.0001557836,4.23842414
0.0001718351,4.0356118
0.0001895404,3.84250422
0.0002090701,3.65863701
0.000230612,3.483568
0.0002543736,3.3168762
0.0002805835,3.15816075
0.0003094939,3.00703997
0.0003413832,2.86315046
0.0003765583,2.72614618
0.0004153577,2.59569768
0.0004581549,2.47149126
0.0005053618,2.35322822
0.0005574328,2.24062418
0.0006148689,2.13340833
0.0006782232,2.03132286
0.0007481052,1.93412227
0.0008251877,1.84157281
0.0009102125,1.75345193
0.001003998,1.66954771
0.0011074469,1.58965838
0.0012215549,1.51359182
0.0013474202,1.44116512
0.0014862542,1.37220409
0.0016393933,1.30654292
0.0018083114,1.24402369
0.0019946343,1.18449605
0.0022001553,1.12781687
0.0024268526,1.07384984
0.0026769081,1.02246517
0.0029527286,0.973539313
0.0032569687,0.926954597
0.0035925568,0.882598998
0.0039627229,0.840365855
0.0043710298,0.800153606
0.0048214074,0.761865548
0.0053181905,0.725409607
0.0058661607,0.690698116
0.006470592,0.657647599
0.007137302,0.626178581
0.0078727078,0.596215379
0.0086838876,0.567685945
0.0095786489,0.540521672
0.0105656037,0.514657228
0.0116542513,0.490030425
0.0128550698,0.46658203
0.014179617,0.444255665
0.0156406415,0.422997638
0.0172522055,0.402756824
0.0190298201,0.38348455
0.0209905947,0.365134472
0.0231534016,0.347662466
0.0252418805,0.332969421
0.0253,0.33258675
0.0279068348,0.316672175
0.03078227,0.30151913
0.0339539812,0.287091166
0.0374524958,0.273353597
0.0413114868,0.260273384
0.0455680964,0.247819065
0.050263294,0.235960699
0.0554422705,0.224669766
0.061154873,0.213919115
0.0674560846,0.20368289
0.0744065538,0.193936478
0.0820731781,0.184656442
0.0905297481,0.17582046
0.0998576572,0.167407287
0.1101466856,0.159396689
0.1214958641,0.151769409
0.1340144274,0.144507093
0.1478228652,0.137592289
0.1630540823,0.131008363
0.1798546777,0.124739477
0.1983863551,0.118770565
0.21882748,0.11308727
0.2413747961,0.107675924
0.2662453188,0.102523521
0.2936784244,0.09761766
0.3239381535,0.092946549
0.3573157528,0.088498963
0.3941324781,0.084264204
0.4347426864,0.080232095
0.4795372468,0.076392962
0.5289473021,0.072737613
0.5834484187,0.069257341
0.6435651642,0.065943931
0.7098761558,0.062789628
0.7830196296,0.059787112
0.863699584,0.056929334
0.9526925547,0.054209326
1.05085509,0.051620043
1.159131993,0.049154416
1.278565418,0.046805664
1.410304899,0.044567676
1.555618414,0.042435238
1.71590459,0.040404187
1.892706166,0.038470288
2.087724836,0.036629592
2.302837635,0.034877461
2.540115001,0.033209301
2.801840703,0.031620743
3.090533823,0.030107315
3.408973002,0.028665668
3.760223182,0.027293609
4.14766511,0.025987419
4.575027872,0.024743464
5.046424789,0.023560168
5.566393007,0.022434495
6.139937164,0.021361318
6.772577562,0.02033907
7.470403297,0.01936576
8.240130867,0.018436995
9.089168818,0.017553492
10.02568905,0.016713627
11.05870547,0.015914616
12.28420785,0.015100028
13.54993515,0.01437739
14.94607913,0.013690892
16.60155732,0.012987986
18.31213115,0.012365898
20.19895728,0.011774209
22.28019623,0.011211145
24.74924046,0.010637195
27.10810338,0.010163631
30.11216605,0.009644528
33.44749128,0.009148471
36.89381877,0.008711008
40.69524532,0.008295185
44.88835927,0.007896726
49.5135189,0.007518619
55.00050228,0.00713305
60.66758627,0.006792702
66.91858931,0.006466383
73.81367664,0.006157345
81.41921273,0.005862881
89.80840007,0.005581174
99.75588194,0.005294931
110.8106181,0.005023223
121.3720351,0.004800551
132.9465905,0.004585543
145.6177987,0.004381811
158.3872534,0.00420137
173.4917379,0.004013398
190.0273251,0.00383461
206.6911214,0.003676359
226.4020687,0.00351154
246.2556236,0.003367438
267.8501682,0.003227391
291.3383725,0.003094422
314.6666043,0.002976881
344.6745541,0.002843357
377.5256646,0.002716457
410.6314864,0.002604414
449.7910567,0.002487408
492.6608756,0.002376416
535.8630859,0.002277726
578.7994571,0.002191071
642.9092406,0.002077112
694.4227531,0.0019991
750.027015,0.001922107
833.1434214,0.001822389
906.2030839,0.001747135
985.6694637,0.001674398
1072.10438,0.001604265
1157.950602,0.001542689
1277.2623,0.001466822
1369.94006,0.0014161
1500.583392,0.001351559
1666.793075,0.001280804
1800.345935,0.001231681
1958.221113,0.001179964
2144.86018,0.001125905
2349.403199,0.001073993
2519.875173,0.001036173
2760.045781,0.0009883629
3044.43248,0.0009393955
3358.121516,0.0008922291
3627.193144,0.0008571593
3917.632067,0.000823282
4291.234173,0.0007845034
4667.539275,0.0007503367
5112.404865,0.0007150546
5560.719723,0.0006834344
6133.679322,0.000648361
6625.144285,0.0006218126
7155.637067,0.0005964146
7838.029139,0.0005671567
8585.075766,0.0005392809
9403.785209,0.0005126469
10086.12102,0.000492956
12016.20138,0.0004459892
14117.15684,0.000406289
16105.38013,0.000375782
18126.97385,0.0003499647
20134.77868,0.0003281653
22209.40487,0.000308776
24327.38848,0.0002915426
26460.6956,0.0002762669
28380.67554,0.0002639492
30226.7461,0.0002532789
35262.9496,0.0002283982
40282.16405,0.0002083765
45375.20926,0.0001915916
50352.70505,0.0001777296
55387.97555,0.0001657136
60667.03224,0.0001548419
65458.51655,0.0001461508
70699.95267,0.0001377721
75829.91952,0.0001304808
81128.656,0.0001237553
86410.05095,0.0001177344
91269.738,0.0001127045
97019.87301,0.0001073234
101410.82,0.0001035986
110775.9515,9.641154e-05
120490.0696,9.002691e-05
130917.0335,8.415444e-05
141399.9053,7.905338e-05
151659.839,7.469565e-05
161128.6565,7.113219e-05
171199.1975,6.777211e-05
182335.1478,6.449324e-05
192680.558,6.177971e-05
201410.8205,5.971514e-05
221551.9025,5.558666e-05
240980.1387,5.229177e-05
261834.0665,4.936714e-05
281975.1485,4.700004e-05
302116.2305,4.500112e-05
322257.3125,4.330308e-05
344796.788,4.170301e-05
364670.2956,4.049625e-05
388079.4923,3.929184e-05
411366.1765,3.827907e-05
443103.8045,3.714187e-05
469780.438,3.639538e-05
503527.0505,3.559988e-05
553879.7555,3.474365e-05
608464.92,3.413453e-05
663820.1839,3.375313e-05
719890.8089,3.35423e-05
800000.0,3.344728e-05
925573.8972,3.364239e-05
1072559.693,3.410873e-05
1542623.162,3.577926e-05
1851147.794,3.659017e-05
2085849.064,3.698628e-05
2359631.324,3.725381e-05
2600000.0,3.7345e-05
3085246.324,3.720243e-05
3728411.957,3.669548e-05
6214019.925,3.413758e-05
7249689.912,3.32533e-05
8741531.251,3.218887e-05
10000000.0,3.143757e-05
10141082.0,3.136857e-05
10284154.41,3.129863e-05
10429245.32,3.12277e-05
10576383.2,3.115577e-05
10725596.93,3.108283e-05
10876915.8,3.100885e-05
11030369.5,3.093384e-05
11185988.16,3.085776e-05
11343802.32,3.078061e-05
11503842.95,3.070238e-05
11666141.46,3.062304e-05
11830729.72,3.054258e-05
11997640.02,3.046098e-05
12166905.13,3.037824e-05
12338558.26,3.029432e-05
12500000.0,3.02154e-05
12676352.5,3.014221e-05
12855193.02,3.006798e-05
13036556.65,2.999271e-05
13220479.0,2.991637e-05
13406996.16,2.983896e-05
13596144.74,2.976045e-05
13787961.87,2.968084e-05
13982485.2,2.96001e-05
14179752.89,2.951823e-05
14379803.68,2.94352e-05
14582676.83,2.9351e-05
14788412.15,2.926561e-05
14997050.03,2.917901e-05
15208631.41,2.90912e-05
15423197.82,2.900214e-05
15640791.38,2.891183e-05
15861454.8,2.882025e-05
16085231.37,2.872737e-05
16312165.03,2.863318e-05
16542300.32,2.853767e-05
16775682.4,2.84408e-05
17012357.08,2.834257e-05
17252370.82,2.824295e-05
17495770.72,2.814193e-05
17742604.55,2.803949e-05
17992920.76,2.793559e-05
18246768.49,2.783023e-05
18504197.55,2.772339e-05
18765258.47,2.761504e-05
19000000.0,2.751761e-05
19268055.8,2.740779e-05
19539893.38,2.729642e-05
19815566.11,2.718348e-05
20000000.0,2.710792e-05
