energy,cross_section
1e-05,5720.4591
1.103037e-05,5446.71584
1.216691e-05,5186.07075
1.342055e-05,4937.89697
1.480336e-05,4701.59775
1.632865e-05,4476.60481
1.801111e-05,4262.3771
1.986691e-05,4058.39947
2.191394e-05,3864.18137
2.417189e-05,3679.25574
2.666248e-05,3503.17791
2.940971e-05,3335.52443
3.243999e-05,3175.89212
3.578251e-05,3023.89711
3.946943e-05,2879.17387
4.353624e-05,2741.37438
4.802208e-05,2610.16727
5.297013e-05,2485.237
5.842801e-05,2366.28312
6.444825e-05,2253.01959
7.108881e-05,2145.17402
7.841358e-05,2042.48706
8.649308e-05,1944.71176
9.540506e-05,1851.61296
0.0001052353,1762.96681
0.0001160784,1678.5601
0.0001280388,1598.18982
0.0001412315,1521.66269
0.0001557836,1448.79469
0.0001718351,1379.41051
0.0001895404,1313.34327
0.0002090701,1250.43411
0.000230612,1190.53166
0.0002543736,1133.49186
0.0002805835,1079.17748
0.0003094939,1027.4578
0.0003413832,978.208444
0.0003765583,931.310865
0.0004153577,886.652198
0.0004581549,844.12494
0.0005053618,803.626702
0.0005574328,765.059957
0.0006148689,728.331776
0.0006782232,693.353649
0.0007481052,660.041263
0.0008251877,628.314254
0.0009102125,598.096002
0.001003998,569.313544
0.0011074469,541.897252
0.0012215549,515.780737
0.0013474202,490.900731
0.0014862542,467.196764
0.0016393933,444.611242
0.0018083114,423.089138
0.0019946343,402.577909
0.0022001553,383.027562
0.0024268526,364.390379
0.0026769081,346.621077
0.0029527286,329.676592
0.0032569687,313.515741
0.0035925568,298.098612
0.0039627229,283.385427
0.0043710298,269.335948
0.0048214074,255.910128
0.0053181905,243.070484
0.0058661607,230.784367
0.006470592,219.024195
0.007137302,207.766261
0.0078727078,196.984973
0.0086838876,186.658501
0.0095786489,176.766406
0.0105656037,167.29077
0.0116542513,158.213786
0.0128550698,149.517169
0.0140809846,141.768746
0.01542305,134.337522
0.0168938583,127.214984
0.0185040202,120.40808
0.020268643,113.908464
0.0222004573,107.722761
0.0241472505,102.286911
0.0252418805,99.5255532
0.0253,99.3842684
0.027518597,94.3506342
0.0299317462,89.5651586
0.0325565083,85.0235204
0.0354114399,80.7239611
0.038516725,76.6625992
0.0418943175,72.8192556
0.0455680964,69.1772955
0.0495640347,65.7353545
0.0539103832,62.4878301
0.0586378699,59.426915
0.0637799173,56.5459052
0.069372879,53.8397746
0.0754562963,51.3055295
0.0820731781,48.9426197
0.0892703047,46.7534685
0.0970985588,44.7442104
0.1048786431,43.0691316
0.1132765523,41.5683695
0.1223529086,40.2590564
0.131230798,39.2588053
0.1407528644,38.4683702
0.1499083797,37.9684527
0.1596672668,37.7075404
0.1640567715,37.680862
0.1733588851,37.8109496
0.183351,38.2361358
0.1925607006,38.8925684
0.2022429277,39.8537554
0.2124015678,41.1440887
0.2246440373,43.012593
0.2460670513,46.5187201
0.2548317551,47.6837376
0.2620729119,48.3489881
0.269034709,48.641936
0.2707842925,48.6537998
0.2755339489,48.5507022
0.2813923028,48.1411527
0.2873611147,47.4020924
0.2934709357,46.3278502
0.2996959561,44.9424373
0.3060680382,43.2785205
0.3147650966,40.7313625
0.3376043553,33.6589113
0.347197532,30.901998
0.3545621855,28.9505213
0.3621008236,27.11535
0.3697816014,25.4154831
0.377643832,23.8460888
0.3856543036,22.4122492
0.3938540167,21.1014002
0.4022083341,19.9116159
0.4107600161,18.8281272
0.4194729386,17.846431
0.4283916975,16.9524808
0.4374786182,16.1414711
0.4467802106,15.4012433
0.4562571832,14.7276325
0.4659580421,14.110597
0.4791984455,13.3687057
0.4928150807,12.7065318
0.5068186387,12.1133523
0.521220114,11.5801634
0.5360308135,11.0994464
0.5551237862,10.5632865
0.5749250447,10.0889001
0.5954033976,9.67008388
0.6166414293,9.3000076
0.6386056852,8.97530747
0.661384742,8.6929625
0.6849427176,8.45282715
0.7093746157,8.25438954
0.7346419508,8.10079033
0.7608466199,7.99760972
0.7824664124,7.95732801
0.7925913937,7.95325122
0.8151132279,7.98133703
0.8324440197,8.04172502
0.8501015818,8.14313527
0.8681762897,8.29551868
0.8865917944,8.51107094
0.8991000087,8.69881528
0.9117846915,8.92961213
0.9246483323,9.21229709
0.9376934559,9.55814725
0.9476153317,9.86815051
0.9576305264,10.2291561
0.9677396998,10.6503228
0.9779435086,11.1428286
0.9882912764,11.7232791
0.9987363686,12.4065078
1.005732205,12.9273977
1.012826746,13.5146196
1.019921276,14.1681845
1.027115908,14.9065474
1.034310529,15.7295016
1.041606664,16.6595809
1.048902789,17.695049
1.056301859,18.8615361
1.06370092,20.1523194
1.071204377,21.5920477
1.078707825,23.1614489
1.086317143,24.8744039
1.100534179,28.3081214
1.114951793,31.8040182
1.122761677,33.5150165
1.130325752,34.9217746
1.136060255,35.7636583
1.141281628,36.3263812
1.146830661,36.6857956
1.152379678,36.7825248
1.1582458,36.5926413
1.164111906,36.1098384
1.170082485,35.3397214
1.176261992,34.2837827
1.182441508,33.0129808
1.188679139,31.5675871
1.201212518,28.392894
1.213922735,25.1334624
1.222455981,23.0684429
1.228900749,21.6138223
1.235345502,20.264136
1.241881201,19.0093299
1.248416885,17.8713045
1.252774003,17.1767797
1.259402385,16.2151953
1.266030758,15.3612109
1.272922013,14.5751827
1.279813257,13.8759122
1.288082764,13.1216543
1.301176136,12.0298206
1.319782504,10.5396448
1.332875885,9.54972601
1.339767135,9.07325181
1.346658384,8.63638587
1.353549634,8.24117546
1.360440883,7.88633639
1.367332133,7.56850422
1.374223382,7.28342173
1.384560249,6.90785103
1.394897131,6.58354177
1.405234003,6.30043591
1.412125247,6.1307509
1.425907746,5.82926901
1.439690245,5.56955873
1.454923831,5.32161238
1.470300686,5.10526703
1.485821835,4.9152972
1.501488275,4.74763217
1.522671572,4.55291885
1.544153727,4.38669949
1.565938957,4.24458999
1.588031537,4.12349082
1.610435803,4.02147443
1.633156154,3.93733796
1.656197047,3.87063999
1.679563006,3.82180046
1.703258617,3.79223605
1.725566049,3.78452366
1.74991068,3.80225403
1.768426755,3.83786809
1.787116972,3.89808972
1.799635164,3.95532068
1.812329976,4.03047302
1.825024777,4.12671905
1.837898689,4.25118096
1.847554123,4.36661585
1.857300367,4.50700895
1.867092021,4.67796914
1.876883661,4.88662912
1.883503531,5.05417704
1.890123391,5.24779411
1.896743256,5.472702
1.903363111,5.73554059
1.909152393,6.00315001
1.914941664,6.31358627
1.919283628,6.58003129
1.923625578,6.88062878
1.92817431,7.23864287
1.931482502,7.53135087
1.934790692,7.85556065
1.93809888,8.21577932
1.941025356,8.5686602
1.944842495,9.08455759
1.948659641,9.67368431
1.951204403,10.1134998
1.953749167,10.5961025
1.956293929,11.1264485
1.958838688,11.7100103
1.96138345,12.3527813
1.963928214,13.0612567
1.966472975,13.8423874
1.969017734,14.7035029
1.971562496,15.6521877
1.97410726,16.6961035
1.976652022,17.8427554
1.979196781,19.0992017
1.981741543,20.4716956
1.984286307,21.9652601
1.986831069,23.5832124
1.989375828,25.3266544
1.99192059,27.1939396
1.994465354,29.1801375
1.998282492,32.3622224
2.002099636,35.7440032
2.013551062,46.2739732
2.017368209,49.5401862
2.02118534,52.4666028
2.023984583,54.3197794
2.026783815,55.8709861
2.029328582,56.9839354
2.031873339,57.7873912
2.034316318,58.2501646
2.036727485,58.4005897
2.0390623,58.2532596
2.041034481,57.9063239
2.043579248,57.1662903
2.046124004,56.1133725
2.048986872,54.5853079
2.051849725,52.7353612
2.055030679,50.3635352
2.058847818,47.1806709
2.063937336,42.5847799
2.071571628,35.5314174
2.075388772,32.1537759
2.079205911,28.9737923
2.081750675,26.9871607
2.084295429,25.117703
2.086840198,23.370251
2.089384958,21.7465109
2.091929722,20.2455057
2.094474476,18.8641296
2.097019245,17.597598
2.099564004,16.4399449
2.102108768,15.3843784
2.104653522,14.4236559
2.107198291,13.5503398
2.109743051,12.7570553
2.112287815,12.0366305
2.114832569,11.3822424
2.117377338,10.7874801
2.119922098,10.2464157
2.122466862,9.75360452
2.125011616,9.30410152
2.12882877,8.7013932
2.132645908,8.1729847
2.135190662,7.85641328
2.139007812,7.42798154
2.142824953,7.04800315
2.146642098,6.7095414
2.150459233,6.4067992
2.15425163,6.13659093
2.158044018,5.89284386
2.163732606,5.56959357
2.169421187,5.28909248
2.175109772,5.04401681
2.180798342,4.82855305
2.186567194,4.63551224
2.19233603,4.46421096
2.200027815,4.26419171
2.207719597,4.09116659
2.215465641,3.93943346
2.223265945,3.80563964
2.234966395,3.63415663
2.246721873,3.49022746
2.258587395,3.36773753
2.270452924,3.26354186
2.282430049,3.17335628
2.298473951,3.07152846
2.314631028,2.98663828
2.330901281,2.91550348
2.355536202,2.82945326
2.38040229,2.76354832
2.405501151,2.71413447
2.430954127,2.67870543
2.452664269,2.65893249
2.47701581,2.64770846
2.488141524,2.64647822
2.518339913,2.6563709
2.542180731,2.67975006
2.566021565,2.72027948
2.58191545,2.75932357
2.597809334,2.81056427
2.613703219,2.87710731
2.629597103,2.96310233
2.641517518,3.0435394
2.653437927,3.14057673
2.665358344,3.2570364
2.677278756,3.39542461
2.689199173,3.55706037
2.701119575,3.74073537
2.729728572,4.22775701
2.740933763,4.40313621
2.751503194,4.53836417
2.760721649,4.62217452
2.768668591,4.66420875
2.776267864,4.67683346
2.78476115,4.66013551
2.795290847,4.60020678
2.802045746,4.54396579
2.815555542,4.40680681
2.835422909,4.19674552
2.847343311,4.09117472
2.859263736,4.01146231
2.871184145,3.96111953
2.88151517,3.94197686
2.88389925,3.94077669
2.894031611,3.94898085
2.904163957,3.9785077
2.914892329,4.03292739
2.926812738,4.12183277
2.938733155,4.24215575
2.949801768,4.38435561
2.960444486,4.55182462
2.97108719,4.75340776
2.979012285,4.92868206
2.98693737,5.12832042
2.994862459,5.35543707
3.002787539,5.6136887
3.010712634,5.90732331
3.018637719,6.24120359
3.026562808,6.62079533
3.032506626,6.93906952
3.03845044,7.28906412
3.044394261,7.6734504
3.050338068,8.09479477
3.056281892,8.55539412
3.062225702,9.05704059
3.069952662,9.77207513
3.077481498,10.5363159
3.085010331,11.3622148
3.096303569,12.6918339
3.112153743,14.6193143
3.120078836,15.5302879
3.128003918,16.3464287
3.133472236,16.8295813
3.139416051,17.2611983
3.144488107,17.5406845
3.149500726,17.7283749
3.15445391,17.8223791
3.156930494,17.8344506
3.161536959,17.7947844
3.166143409,17.6756524
3.172186288,17.4046535
3.178130106,17.0221208
3.184073921,16.5401697
3.190017734,15.9771158
3.196952185,15.2441134
3.220727447,12.5087756
3.228652534,11.6374973
3.236577624,10.8261432
3.244502711,10.0862754
3.252427796,9.42301247
3.258371612,8.97617239
3.264315426,8.57156588
3.270259247,8.20739263
3.27620306,7.88142991
3.284128145,7.50202472
3.292053232,7.18031556
3.299978322,6.91065726
3.307903409,6.68791129
3.315828494,6.50757591
3.323753581,6.36583356
3.331678671,6.2595499
3.339603758,6.18624862
3.347528843,6.14407799
3.354661413,6.13168924
3.362586508,6.14567171
3.370511593,6.18869749
3.378436682,6.26114486
3.386361762,6.36397516
3.394286857,6.49877483
3.402211942,6.66782003
3.410137031,6.87417339
3.418062111,7.12181411
3.427109975,7.4615688
3.433141877,7.72634616
3.439173776,8.02580319
3.444591369,8.3277817
3.451796291,8.78425014
3.459001221,9.31277904
3.463804505,9.71122243
3.468607792,10.1515759
3.473411076,10.6388814
3.478214358,11.1789274
3.483017642,11.7783491
3.487820928,12.4447301
3.492624212,13.1867026
3.497427494,14.0140343
3.502230778,14.9376871
3.507034065,15.9698232
3.511837349,17.123737
3.515439814,18.077634
3.519042264,19.1142931
3.52264474,20.2400769
3.526247201,21.4612539
3.529849666,22.7838412
3.533452124,24.2133278
3.537054588,25.7543972
3.540657051,27.4105622
3.545460338,29.8009489
3.550263622,32.3982356
3.555066904,35.1933588
3.559870188,38.1673955
3.56707511,42.8942062
3.58004398,51.7025776
3.586768578,56.0444543
3.592532519,59.4105386
3.597335803,61.8480648
3.601922939,63.7821565
3.606293927,65.20816
3.6103527,66.1286414
3.614387461,66.6328107
3.617509593,66.7326675
3.621112059,66.5306808
3.624714514,65.9933397
3.628316988,65.1323504
3.631919448,63.9661778
3.636602651,62.0347191
3.641165775,59.7596359
3.645728896,57.1671358
3.652573567,52.8475293
3.671462494,40.0901714
3.676754598,36.7015559
3.682046699,33.5087749
3.687338798,30.5443494
3.691377507,28.4467464
3.695555478,26.4301233
3.699733457,24.5681331
3.70391143,22.8563411
3.708089409,21.2879495
3.712267372,19.8545626
3.716111116,18.6470219
3.720289091,17.4461516
3.723854296,16.5061643
3.728422215,15.4057674
3.732600194,14.4920806
3.736778157,13.6581358
3.741373941,12.8234396
3.745969709,12.0660759
3.74903355,11.5998749
3.754604191,10.8232091
3.760174821,10.1279649
3.765745457,9.50375871
3.771316082,8.94175751
3.776886723,8.4344322
3.782457354,7.97535019
3.788027989,7.55898023
3.793598615,7.18054299
3.799169256,6.83587962
3.804739886,6.52135671
3.813095839,6.09920498
3.821451788,5.72854083
3.829807741,5.40168738
3.838163679,5.11224438
3.84651964,4.85486472
3.854875586,4.62507924
3.863231537,4.41914283
3.871587483,4.23391178
3.882728744,4.01462894
3.893870015,3.82231773
3.905011276,3.65281024
3.916152547,3.50272395
3.927293808,3.36929311
3.941777459,3.21703398
3.9562611,3.08505232
3.975479796,2.93581113
3.994698476,2.81082241
4.014578279,2.70232746
4.035780313,2.60576651
4.056982354,2.52564477
4.078383805,2.45882899
4.092717909,2.42093231
4.121386116,2.35934435
4.150458791,2.31361711
4.179531456,2.28259335
4.204933857,2.26647303
4.230336247,2.26010821
4.260177467,2.26482733
4.290018677,2.28283825
4.320280903,2.31552357
4.350543118,2.36436629
4.373560004,2.41384925
4.396576875,2.47565433
4.419701993,2.55224548
4.443043591,2.64721571
4.466385196,2.76394035
4.482056033,2.85714587
4.497836642,2.96548611
4.513617248,3.09105389
4.529397851,3.23726799
4.541288966,3.36370255
4.553291395,3.50811002
4.565293833,3.6723593
4.577296262,3.86014888
4.589298696,4.07610767
4.601301114,4.32609526
4.609415633,4.51810366
4.617530141,4.73194718
4.625644654,4.97111363
4.633759158,5.23985063
4.641873673,5.54338148
4.649988179,5.88819006
4.65607407,6.17870687
4.662159945,6.50119506
4.668984473,6.90719211
4.674519023,7.27672178
4.68005357,7.68853091
4.685588115,8.14971753
4.691122661,8.66901653
4.695273575,9.10305681
4.699424474,9.58138231
4.703575392,10.1106
4.707726295,10.6985865
4.710493559,11.1278114
4.714427863,11.7966216
4.718362156,12.5440562
4.722296455,13.3829469
4.725247179,14.0811738
4.728197899,14.8467366
4.731148625,15.687996
4.734099336,16.6143487
4.737050065,17.6363368
4.74000078,18.7656825
4.743035807,20.0529988
4.746239446,21.5671971
4.749443091,23.2606848
4.752646729,25.1552276
4.754782486,26.5414229
4.756918247,28.0345803
4.759053998,29.642154
4.761302174,31.466341
4.76355034,33.4347255
4.765798511,35.5562858
4.768046672,37.8398295
4.770294848,40.2939127
4.772543014,42.9265777
4.774791185,45.7452638
4.777039346,48.7565237
4.78041161,53.6462412
4.783783859,58.9942054
4.787156113,64.8049452
4.790528362,71.0727725
4.793900619,77.7801532
4.79727287,84.8960976
4.801769207,94.9386006
4.80851371,110.865912
4.817506384,132.548237
4.822002716,142.956512
4.826499058,152.658273
4.83099539,161.331723
4.835042098,168.00463
4.838077129,172.17769
4.84133697,175.772915
4.844709225,178.449236
4.84808147,180.006392
4.850711833,180.420872
4.854263941,179.857729
4.857523783,178.218508
4.859771946,176.480063
4.863369021,172.71614
4.866966085,167.829088
4.870338349,162.334499
4.873710598,156.074271
4.878206935,146.756147
4.882703272,136.619064
4.897273403,101.846863
4.902063679,90.8555618
4.906853962,80.4931614
4.910579735,72.9683119
4.913773261,66.9318923
4.916966771,61.2964008
4.9201603,56.069864
4.923353815,51.2519552
4.925482819,48.2635576
4.927966676,44.9974894
4.930450524,41.9615466
4.932934376,39.1466928
4.935418219,36.5428125
4.937902073,34.1389447
4.940385918,31.9236466
4.942869768,29.885159
4.945353608,28.0116814
4.948014888,26.1741843
4.950676153,24.4986412
4.953337422,22.9715053
4.955998684,21.5798881
4.958659953,20.3116167
4.961321218,19.1553181
4.963982489,18.100427
4.966643745,17.1372142
4.969305019,16.2567447
4.971966279,15.4508963
4.974982381,14.6185135
4.978708154,13.6952744
4.982433934,12.8732831
4.986159707,12.1388708
4.989885484,11.4803417
4.993611246,10.8877244
4.997337031,10.3525171
5.001062802,9.86749254
5.0060305,9.28833367
5.010998194,8.77536268
5.015256221,8.38080528
5.020578754,7.93796274
5.025901294,7.54336681
5.031223826,7.19021018
5.034772179,6.97498687
5.041868884,6.58676968
5.048965601,6.2471827
5.056062308,5.94867314
5.063159021,5.68516491
5.070255723,5.45171811
5.079197254,5.19417988
5.088138776,4.9713951
5.097080302,4.77811351
5.106021819,4.61010695
5.114963348,4.46394108
5.128375634,4.27963875
5.141787905,4.13078737
5.155389425,4.01024285
5.168990931,3.91586252
5.18259244,3.84424621
5.196193941,3.79284263
5.209795451,3.75979772
5.221775669,3.74489393
5.229222051,3.74208968
5.24838318,3.75736739
5.261157259,3.78600533
5.273931335,3.83061811
5.287415086,3.8973955
5.30160851,3.99427502
5.312253579,4.08985607
5.32289864,4.21152807
5.329995352,4.31145763
5.337092054,4.43067584
5.344862966,4.58913037
5.350043566,4.71483785
5.355224164,4.85999409
5.360404763,5.02799647
5.365585364,5.2226517
5.370765961,5.44810043
5.375946557,5.70867899
5.381375537,6.02415096
5.385775502,6.31478097
5.390459329,6.66103406
5.395143164,7.0470002
5.400252796,7.51411253
5.405575335,8.05068371
5.410897859,8.63438033
5.417994573,9.4729578
5.435026674,11.5882055
5.442478223,12.4400036
5.44714672,12.9109721
5.451516022,13.2923125
5.455885321,13.6050457
5.460254618,13.8399508
5.465048574,13.9997961
5.469607697,14.0516353
5.474195496,14.0034751
5.478496553,13.8684698
5.481363921,13.7321436
5.486238461,13.4212968
5.49111299,13.0212727
5.496847741,12.4562381
5.502582482,11.8145655
5.514051974,10.4121815
5.522654101,9.35620859
5.528388848,8.68865572
5.534123594,8.06680372
5.53985834,7.49949474
5.544159403,7.11266852
5.548460451,6.75966661
5.552761522,6.44005397
5.557062578,6.15264523
5.561363639,5.89569059
5.565664695,5.66706248
5.571399436,5.40221021
5.577134187,5.17775188
5.582868928,4.98803503
5.58907607,4.81577156
5.595283203,4.67214177
5.60149034,4.55207838
5.610801042,4.40714995
5.620111737,4.29483974
5.629422439,4.20718672
5.639372803,4.13444272
5.653066403,4.0613745
5.66676,4.01248215
5.680453594,3.98273575
5.698255262,3.96763011
5.718795669,3.9784907
5.739336061,4.01652587
5.753029651,4.05625239
5.774939412,4.14358386
5.796849162,4.26107008
5.817389569,4.40048373
5.837929961,4.57100308
5.858470358,4.77640234
5.87901075,5.02167134
5.89270435,5.21045655
5.906397939,5.42214921
5.920091544,5.65952027
5.933785139,5.92582902
5.947478738,6.22490516
5.961172328,6.56123762
5.974865933,6.94007285
5.988559528,7.36750825
6.002253127,7.85057627
6.012523327,8.25416865
6.022793524,8.69727753
6.033063728,9.1839172
6.043333916,9.71832227
6.053604123,10.3048622
6.063874315,10.9479042
6.075856213,11.7751153
6.086126413,12.5544631
6.096396611,13.4020066
6.106666807,14.3200087
6.118648703,15.4818093
6.1323423,16.9301963
6.146035897,18.5078723
6.159729495,20.219274
6.172053724,21.8868933
6.182323933,23.3888615
6.192594128,25.024222
6.202521987,26.7777389
6.211765162,28.6230635
6.217927283,30.006982
6.224089394,31.5506803
6.228882162,32.8878476
6.23367492,34.3703328
6.238467682,36.026876
6.243260435,37.8919225
6.2480532,40.0066637
6.252845956,42.4201181
6.256440533,44.460792
6.260035096,46.7301112
6.262431466,48.3854991
6.266197215,51.2454167
6.269962953,54.4600887
6.273728697,58.0778328
6.276553005,61.0873196
6.279377309,64.377158
6.282201618,67.9725911
6.285025913,71.8999386
6.287850226,76.1864925
6.290674524,80.8600595
6.294097924,87.0842448
6.297178986,93.2485733
6.300260046,99.9822212
6.303341103,107.318174
6.306422162,115.286317
6.309503222,123.912251
6.312584279,133.216028
6.315665334,143.210838
6.319431073,156.371648
6.322768895,168.89755
6.327219314,186.812534
6.330557125,201.102065
6.335007538,221.166786
6.341854342,253.812703
6.354835289,317.814745
6.360969432,346.639945
6.36597582,368.285007
6.370982197,387.495642
6.375487947,402.163836
6.379993686,413.909483
6.383748481,421.210686
6.387503266,426.084088
6.391858814,428.560511
6.392810034,428.639202
6.395388321,428.016211
6.398767629,425.361724
6.402522409,420.021593
6.405776563,413.441667
6.410282311,401.542439
6.414037094,389.381873
6.419043472,370.436499
6.42404986,348.959954
6.429056237,325.635993
6.447414801,235.041995
6.45242787,211.440475
6.456468518,193.34693
6.460509156,176.240311
6.464549799,160.221812
6.468590432,145.354232
